    0    3644  5984  2218 12787    0
    1    2796  5775  4634  8975    0
    2    5079 15883 11609 17081    0
    3    4535  7326  1617  7327    0
    4   10545 11582   235 17369    0
    5    1054  1795   609  7808    0
    6     237   239   238   236    0
    7     546  4452  2674  7141    0
    8    3522  9509  6195 12663    0
    9   15627 16985  3490 17372    0
   10    4748  7583  2868  8887    0
   11    2098  7014  5227  8472    0
   12    3288 11729  8148 12232    0
   13     428   430   135  2168    0
   14    2760  4717  4716 15491    0
   15    7893 11443 11433 15002    0
   16   10780  1581 15468  4439    0
   17    1005  1723   189  1724    0
   18    5886 12719  9126 15578    0
   19    3394 12340  8735 12927    0
   20    3346  8636  8008  8643    0
   21    2980 11326 11317 14514    0
   22    1219  8472  5387  8473    0
   23    3027  7664  4811 11213    0
   24    2037  3303  3301  5478    0
   25    5335  8369  5324 12404    0
   26    7962 11526  3042 17277    0
   27    1231 11036  7487 12576    0
   28    9702 13254 13239 16683    0
   29    4943  7834  4902  7835    0
   30    3632  5966  5962  9113    0
   31    3188  5277   122  5283    0
   32       5   278   276   277    0
   33     884  6777  2099 10236    0
   34    9585  9587  3817  9659    0
   35     715  6198  3774  9513    0
   36    5115  5117  1864  8615    0
   37   17137  6774  2554 13632    0
   38     408 10931  4695 11041    0
   39     734  1266   426  5893    0
   40     223  2011  1912  5124    0
   41    1016  2879  1018  2880    0
   42    5513  8624  3337  8625    0
   43    3324  5497  2009  5532    0
   44      63   634   362  1868    0
   45    4775  7613  1719 11149    0
   46    7677  7776  2982 11298    0
   47   14717 15294 12229 16818    0
   48    2346  6333  3864  9665    0
   49    9940 15249  1960 16014    0
   50    1435  6225  6224  6233    0
   51    9868 13442  3945 16781    0
   52    7108 14229 10699 14241    0
   53    6880 10361   899 10380    0
   54   10246 13561  2611 13562    0
   55    4008  6222   155  9555    0
   56   11165 11342   352 16540    0
   57     873  1478  1476  4123    0
   58    6217  9984  3788 13002    0
   59    3088  3090  1867  5131    0
   60    2272  6533  4011  6548    0
   61    2246  6071   762  9331    0
   62     419  1251  1250  2183    0
   63    4806 14533 11185 14545    0
   64    2874  3629  2873  9192    0
   65    1401  9656  6330  9660    0
   66     194  1774  1038  2945    0
   67    3197  3199   675  5423    0
   68    6463  9642  3849  9886    0
   69     534  7043  4342 13690    0
   70    3354  5536   126  8605    0
   71    2114  8938  5758 12558    0
   72    6327  6328  3858  6530    0
   73    8404 11616   154 16664    0
   74    6703 10072  4149 10159    0
   75     334  1731  1015  1738    0
   76    5728  8897  8885 10862    0
   77    2900 10756  4791 11145    0
   78    4598  4600  4599 10947    0
   79    3869  9662  2351  9668    0
   80    3321  5546  1989 11683    0
   81      29  1618   935  1619    0
   82     429  1269   428  2169    0
   83    8303 11878  5240 11881    0
   84    8266 11835  3180 13405    0
   85    6710 10152  4145 10154    0
   86    4244 13529 10163 13729    0
   87    1628  4567  4545  7349    0
   88   12084 12157  8463 15203    0
   89    1051  2979   113  4911    0
   90    3842  9841  6422 13395    0
   91     271  6478  6304 13138    0
   92      22  5981  3646  8989    0
   93    3232 11986  8388 15104    0
   94    5306 14406  8320 16736    0
   95    6050  9270  6027 15631    0
   96    1329  3740  3729  6151    0
   97    3061 13292 12907 15690    0
   98     192  4778  4777  4779    0
   99      10  1103  1100  1889    0
  100     244  1297  1292  2206    0
  101    5527  8623  5526 12267    0
  102    2670 10745  7166 11227    0
  103    7508  7519  4313 14442    0
  104    2412 11953  9923 13805    0
  105    6590 10002 10000 10004    0
  106     607  2962  1785  4893    0
  107   11891 11892  8311 15025    0
  108    4601    69  2775  7392    0
  109     202 11352  4902 14623    0
  110    2657  4395   174  7142    0
  111    2181  5909  2182  5914    0
  112    4005  4012  1426  9963    0
  113    7193  7219  2690  7234    0
  114    9573  9658  6289 13202    0
  115    1113  3198   372  5182    0
  116    2118  3495   323  8960    0
  117    5963  9194  2192 12777    0
  118    2192  5947  3619  9182    0
  119    5443  8551   387 12193    0
  120    1340  6189  5785  6191    0
  121    2887  4774  1733  7614    0
  122     631  1861  1858  3083    0
  123   12050 13808 12051 16183    0
  124    1359  6463  6289  6465    0
  125     137   417    74   418    0
  126    1151 12058  8426 12225    0
  127    3661  8991  2223 12790    0
  128    5866  5876  3537 12711    0
  129     409  5899  3574  9210    0
  130    1887  2034  2032  5141    0
  131   11657 11908  8338 15033    0
  132   12264 14985  1934 15311    0
  133    1175  5540  5538  8088    0
  134    9230  9231  5789 12789    0
  135    2189  3693  1279  5901    0
  136   12633 13909  5807 15532    0
  137    5616 12179 12170 12384    0
  138     949  4541  2744  4542    0
  139    1490  6874  4130 10175    0
  140    3136  5185  1906  8159    0
  141     821  1422   272  1424    0
  142    7844 14632 11371 15753    0
  143    2000  5474   382  8170    0
  144     238   428   236   429    0
  145   11998 11999  8397 15107    0
  146    2588 10366  6884 13827    0
  147     485  4042  1432  4051    0
  148     592  1738  1731  1740    0
  149    3955  6466  1402 13460    0
  150    1373  2333  1372  3855    0
  151   15609 16382 14138 16980    0
  152    6964 12674  4297 15764    0
  153    5343 16666 14828 17295    0
  154     594  7689  7665 11265    0
  155    1771  4786  1774 11156    0
  156    3679 12850  9298 12851    0
  157    5481  8599  5032  8678    0
  158    5730  8898  3469  8901    0
  159   11073 12410  2845 14464    0
  160    5697  8472  3455  8473    0
  161    3543  5857  5854  9093    0
  162    1869  2010  1090  3328    0
  163    6899 10123  4133 13638    0
  164    2280  9305  5797  9397    0
  165    7939 14701 11481 14702    0
  166    8129 11713 11698 14893    0
  167    6303  9629  2321  9630    0
  168    1250  2183  1249  3586    0
  169    3780  7763  4886 11294    0
  170    3380  5576  5575  8539    0
  171    1268  1270  1253  2167    0
  172    7310 11048   184 14446    0
  173    2332  2333  1366  2334    0
  174    8875 11755  5216 11770    0
  175    6597  6598  1078  8063    0
  176    3544  5854  2148  5857    0
  177    8811 12109  5653 15220    0
  178    1932  5252  1133  5262    0
  179    7249  7299  7250 10882    0
  180     542  2673  1573  7178    0
  181    6597 11630  6596 14853    0
  182    2034  3095   364  5206    0
  183    4861 11219  7731 11267    0
  184    3977 10265  6817 10266    0
  185    6064 12979  9324 13327    0
  186     787  1362  2327  1363    0
  187      72   726   725   727    0
  188    1718  4906  2972  7771    0
  189    2812  7302  4660  7463    0
  190    1501  4171   885 10606    0
  191     184  4699  4509 14337    0
  192     314  4499   942  7312    0
  193    1285  9193  5962 12782    0
  194     803 13418  9846 17071    0
  195    3844  9642  1359 13182    0
  196    4878  7754  1041 11276    0
  197    3534  5844    71  5910    0
  198    4274 10414  6927 13913    0
  199    3119  6262  5161  9576    0
  200     743  3576  1279  3580    0
  201     708  7364  4572  7367    0
  202    4875 10004 10002 13525    0
  203      43  1776   602  1777    0
  204    3373  3376  1191  5566    0
  205    2786  7441  4637  7452    0
  206    4724  7382  4586  7547    0
  207     187  4774  1017 11148    0
  208    5700 11773  8869 16709    0
  209    6673 10102  4116 16056    0
  210   11341 11348  4929 11381    0
  211    4747 12579 12575 15492    0
  212     979  1680  1679  4680    0
  213     390  2041  2040  3359    0
  214     840  1441   281  1442    0
  215   13848 16140  5834 17136    0
  216     706  4511  4510 10859    0
  217    4437  4510  2685  7202    0
  218    4905 10639  7792 16564    0
  219    5812  9045  3518  9047    0
  220    1912  3146   223  5124    0
  221    1726  1731  1010  2886    0
  222    2295  3790  1040  6225    0
  223    1279  3692   433  3693    0
  224    9694 13229  5065 13231    0
  225    7264 10806  4486 14310    0
  226    2067  7393  5636  8797    0
  227    4531  7317  7238 10812    0
  228   10864 10877  7310 14340    0
  229    7412 10567  1124 10574    0
  230    7553  8920  1701 11095    0
  231    5155  8122  5157  8125    0
  232    5636  5679   696  5702    0
  233    6535  9960  4002 13502    0
  234    1016  4422  2889  4768    0
  235    4567  7458   951  7460    0
  236    5133  5139  3104  8117    0
  237    6132  9138  3726  9420    0
  238   11765 12499  5217 14935    0
  239    3007  7107  1063 11397    0
  240    1566  2895   306  4400    0
  241     504   506   505   503    0
  242     237   238   239     0    0
  243    1639 10939  7388 11001    0
  244    1940  8587  3294 12231    0
  245   10835 16413 16407 16414    0
  246    5799 10693  3510 14231    0
  247    2631  7035  4338 13678    0
  248    1082  1861  1084  3082    0
  249     541  1565    32  1566    0
  250    4473  7252  4470 14340    0
  251   12849 14803  9295 15915    0
  252   11338 14603  1552 16567    0
  253    1014  1725   592  1740    0
  254    2565  1511   887  2564    0
  255    5750  8930  3483 12539    0
  256     245  1293   749  5955    0
  257    4759  7596  1229  9164    0
  258    1622  4542  2745  4543    0
  259    4660  7302  4517  7463    0
  260    3302  5480  1169  8631    0
  261    8693  8696  3386 15322    0
  262    6845  8043  4227 11612    0
  263    1511  2568  2564  4209    0
  264    1277  3579  1279  3580    0
  265    9747 13292 11593 14820    0
  266    2789  7443  4629  8318    0
  267    3729  6129   764  6157    0
  268    1018  2879  1742  2896    0
  269    1007   189  1008  1723    0
  270    4189  6780  1500 10606    0
  271    4554 14022 11072 16400    0
  272    8965 12534  5769 15495    0
  273    3319  5489  3315  5490    0
  274    9023  9057  5818 12658    0
  275    4724 11084  7545 11089    0
  276    7452  7453  4649 11019    0
  277    6082  9349  2252 16881    0
  278    3192 11863  1904 16692    0
  279    5954  7568  3606  7569    0
  280    4554  7530  4715 11052    0
  281     500  2507  1468  4107    0
  282    5844  5941  2200  9178    0
  283    3719  6111  2256  9497    0
  284    1284  5924  2190  9159    0
  285    3074  8073  5102 11668    0
  286    2681  7193  4449  7218    0
  287    5753  9267  9077 11078    0
  288    2935  4854  1767  5152    0
  289    8359 12429  3410 15052    0
  290    1471  6671  2540  6681    0
  291    2072  3418  2078  5642    0
  292    3074  5106  5103  8078    0
  293    4550  7340  2767 10896    0
  294    9503 13048  6194 16271    0
  295    4823  7169   333  7690    0
  296    4605  1649  7397  2778    0
  297    1770  4786  1771 11156    0
  298    8377 11951  8419 13783    0
  299   14780 16640 11559 17285    0
  300    7396  7398  4606 10951    0
  301    2720  7356  2719 10913    0
  302    6343  9679  3988 13206    0
  303    1185  3306  2036  5495    0
  304    4836  7702  2923  7703    0
  305    2921  4826  2914  7675    0
  306     601  1037   194  1038    0
  307    6564 11649  8061 14871    0
  308    5187  5492  1909  8162    0
  309     271  6302  6290  9627    0
  310   10980 11003 10987 14417    0
  311    8373  9930  3980 11945    0
  312     359  1857   630  5113    0
  313    2641 10732  4415 10743    0
  314     727   733   421  1265    0
  315    2964  4783  1787  4895    0
  316      63  1868   362  1869    0
  317     174  4395  2656  7142    0
  318    4440 10686  7206 10782    0
  319    1091  2034  1874  3152    0
  320    7760 14672  1779 16556    0
  321    1261  5876  5875  9118    0
  322    3733 12949  9540 15789    0
  323     550  2710  1577  4484    0
  324    5141  8110  3106 12273    0
  325    5020  7934  3034 11176    0
  326    4662  4663  2734  7465    0
  327    7002 13929   906 14794    0
  328    3521  9022  2127  9070    0
  329    5821  9512  9073 12712    0
  330    6660 13602 10086 13604    0
  331       9  4751  1704  4752    0
  332     254  3696  3694  6128    0
  333    1390  9772  9472 17023    0
  334   10461 10474  2603 13967    0
  335    1831  5025  3035 11475    0
  336     724  2139   420 12730    0
  337    9741 13283  9471 15903    0
  338    1912  2012   391  5124    0
  339    2059  8784  8782 15159    0
  340    7353  8970  1630 10912    0
  341    5411 10332  8520 15251    0
  342    8929  9217  3662 12553    0
  343    8732 12315  5597 15191    0
  344     248  1254   727  3536    0
  345    8201  8872  5714 11767    0
  346    9559 12977  6388 13029    0
  347      87   828   160   829    0
  348      32  1562   917  1563    0
  349    2773  7373  7306 10895    0
  350     409  9000  2284 12616    0
  351    2139  9144  5912 12730    0
  352    1265  1268   432  3570    0
  353    8222 12697  9087 15573    0
  354    6251  9461   782 13506    0
  355    3849  9886  9642 13180    0
  356    2426  3999  3998  6533    0
  357    3575  9210  8999 12613    0
  358     729  1260   246 12701    0
  359    1491 10007  6677 10008    0
  360   10273  3823  6822 15814    0
  361     124  5106  3074  8076    0
  362    3586  5847  2183  5914    0
  363     862  1462   290  2511    0
  364    1867  5122  5121  8095    0
  365     236   238   237   428    0
  366    2478  4082  1448  4083    0
  367    4961  7864  1814  9394    0
  368     133  9311  3681  9522    0
  369      88  1417   821  1418    0
  370     389  3142  1910  3144    0
  371     873  2498  1475  2525    0
  372    6245  9567  1326 13028    0
  373    1322  6072  3751 15751    0
  374    6887 16050 12160 17104    0
  375    4333 10190  1549 13693    0
  376    2903  7635  4798 11165    0
  377    1159  7987  5580 11547    0
  378    5990  6055  2241  9216    0
  379    2824  4687  1682  7495    0
  380    1118  5202  3137  8607    0
  381    3382  5579  2051  5580    0
  382    1169  3306  3304  8609    0
  383    5417 12172  3265 15257    0
  384    1336  6157  6155 13008    0
  385    1425  2430   828  4001    0
  386    3919 13362  9799 15955    0
  387    4923  7814  2985 11324    0
  388    1020  2884   593  4772    0
  389    4670  7477   566  7479    0
  390    5168  8137  3123 11711    0
  391    3359  5543  2038  8091    0
  392    4005  6542  2437  9963    0
  393    1187  3360  2040  3361    0
  394    5524  8636  3346  8643    0
  395    4993 11172  2909 14522    0
  396    2837 14340  4473 16479    0
  397     158  1423   275  4003    0
  398    1377  2350  1376  3868    0
  399      29  1619   949  7323    0
  400     434  1277  1274  1279    0
  401    9306 14149 12867 14606    0
  402    1943  5183  3193 11738    0
  403    4192  6776  2557  6783    0
  404    4419  7144  2660 10735    0
  405   11172 11173  7632 14522    0
  406    9612  9638  6293 13175    0
  407   10310 13189  1514 13198    0
  408    1241 11391  4958 11392    0
  409     289   503   504   508    0
  410    2512  4110  1458  4111    0
  411    3123  8286  1139 11864    0
  412    6285  6322  2399 15832    0
  413    1595  4477  2710  7259    0
  414     105  2817   986  7470    0
  415    4410  7694  7171 10749    0
  416    9245 12582  3481 15622    0
  417    2645 14198 10709 16415    0
  418   11794 14384 10968 16494    0
  419    4182  6768  1498 10223    0
  420    5216 11755  8207 11770    0
  421    6757 10204  4178 13705    0
  422    3987  6517   524  6831    0
  423    1309 12553  9218 12790    0
  424    8557 12199  1166 16863    0
  425    3352  8105  5534  8108    0
  426    2326  6858  6842 10328    0
  427    3830  9604  6287 13175    0
  428     655  8071  5101  8073    0
  429    2438  6543  6217  6547    0
  430    5275  8587  1940 14913    0
  431    2678  7169  4425 10746    0
  432    1828  8005  5062  8120    0
  433    2701  4466  1592  7325    0
  434    2138  3532  2163  3570    0
  435    4950 13230 11374 14637    0
  436    4791 11168 11145 11199    0
  437    4045  6584   475  6585    0
  438    1295  2144   749  3623    0
  439    2282  6181  3765 13041    0
  440     823  3795  1421  4001    0
  441    7735  7737  4864 11466    0
  442     156  9994  6582  9999    0
  443     830  3810  2431  6549    0
  444     842  1450  1449  4063    0
  445     852  1476  1456  4126    0
  446    2521  4120   873 13676    0
  447    3407 10708  5626 10716    0
  448    4605  7395  2780  7397    0
  449    9591 13122 13119 16175    0
  450     587  1723  1005  1724    0
  451    8417 12154  5358 15131    0
  452    3121  9784  8135 13349    0
  453    1266  3571   732  5895    0
  454    1046  2962  1793  4895    0
  455    1549 10217  4336 10595    0
  456    7036 10371  4334 13861    0
  457    6960 16994   256 17025    0
  458    3412  5645  1205  8807    0
  459    2290  7763  3785 11423    0
  460    1536 10439  4291 16238    0
  461     680  5115  5114  5116    0
  462   10510 10511  9268 15488    0
  463   14283 16459 10773 16461    0
  464    2781  7396   963  7399    0
  465    2661  4400  2656  7142    0
  466    8462 12360 12359 15198    0
  467    3476  4683   568  4686    0
  468    3221 11898  8353 16484    0
  469    1347  6581  2457  6595    0
  470   16226 17167 10088 17443    0
  471   11838 15008 11858 16732    0
  472    3695  5904  2175  5905    0
  473    8958 15492 12578 16929    0
  474    7159  7161  4407 10744    0
  475   16786 16787 14809 17316    0
  476    1018  1725   589  4774    0
  477    1512 10037  4072 10248    0
  478   11776 16112 13651 16712    0
  479    7343 14179 11072 14180    0
  480    5075 14812 10486 16677    0
  481    4028  9965  1426  9984    0
  482     334  1732   583  1738    0
  483    1016  2889  1737  4768    0
  484   10622 16081  7059 17116    0
  485    1049  2976  1791  4913    0
  486    4431  7190  1597  7191    0
  487    2013  5578  5114 15306    0
  488    8941  9321  6007 15595    0
  489    7240 14321   934 16472    0
  490    2938  7171  1756 10749    0
  491    3583  5989  5984  9129    0
  492     189  1723  1007  1724    0
  493   12294 16453  7714 17237    0
  494    5797  9009  2280  9458    0
  495    2668 10761  7172 10762    0
  496    4051  6581  2462  9552    0
  497     335  1722  1017  1740    0
  498     310  7533  7200 14309    0
  499    2026 11550  5264 11832    0
  500     590  1726  1009  2886    0
  501     221  5519  2018  5535    0
  502    9324 12979  9419 13101    0
  503    6279 13124  1898 14900    0
  504    4015  4022  2445  4041    0
  505    5640  8801  8799 12444    0
  506     605  4783  1790  4794    0
  507    3821  9953  6527 13135    0
  508    2191  9156  5927 12742    0
  509    4609  7547  4695 10956    0
  510    2492  6790   882  6792    0
  511    1738  2887  1015  7613    0
  512    3702  6070  2247  9331    0
  513    3556  3558  2155  5894    0
  514    1827  7913  5009 14687    0
  515     814  6811  4211 13210    0
  516    1052  4891  2962  4922    0
  517    1884  5479  3357  8656    0
  518     216  3198  3136  5186    0
  519    1045  4889  2960  4890    0
  520    7252 10770  4470 10825    0
  521    5138  8645  5530 12271    0
  522    2942  7733  3114  7736    0
  523    3144  3314  2004  5198    0
  524    2945  4867  1773  4868    0
  525    3761  5797  2280  6176    0
  526    1196 12934  6093 15341    0
  527     400  5676  3418  5678    0
  528    8475  8500  3250 12123    0
  529     773  3748  2440 13009    0
  530    6367 13250  3897 15892    0
  531    3707 12901   205 15689    0
  532    3389  5590  5589  7930    0
  533    2516  6709  6706 16060    0
  534    2887  4776  1015  7613    0
  535    3366  3375  2039  3377    0
  536    3396 12327  9339 12900    0
  537    3094  5113   630  5127    0
  538    3124  5166  1110  8124    0
  539    2739  7239  1615 10873    0
  540    1297  2207  2206  3624    0
  541     258  6253  3806  6568    0
  542     236   431   134  2168    0
  543    5054  7991  7974 14763    0
  544    6559  6560  4024  9977    0
  545    1018  2894  2893  2896    0
  546    1189  2041   390  2042    0
  547     477   819    45   820    0
  548    5753 11097  8934 12569    0
  549     391  3092  2012  3328    0
  550    3884  6347  6346  9683    0
  551    2360  9615  6294 15838    0
  552   13597 13598  4277 13599    0
  553    5956  5957  3619  9190    0
  554    1765 11469 11467 14695    0
  555    6434 13156  9843 13408    0
  556     213  1878  1096  5144    0
  557    1102  2941  1894  3114    0
  558   13973 16280  9351 16580    0
  559    1431  4039  2456  5097    0
  560     116  3326  3322  5126    0
  561    2917  7171  7169  7694    0
  562    5364 12059  8450 15175    0
  563    1138  5513  2023  8281    0
  564    4928  4982  1821 14515    0
  565     361  1082  1083  1084    0
  566    1118  3348  2030  5286    0
  567    3936  9780  6437  9848    0
  568    2685  7202  4510 10778    0
  569   10599 12110  5393 14096    0
  570    4925  7803  7786 14594    0
  571   14157 16395 10741 16452    0
  572    1567  7139  1569  7140    0
  573    1389  9750  9749 15919    0
  574    2911  7666  4811 11266    0
  575    8703 11224  5026 12303    0
  576    5014  8120  7924 11466    0
  577    5103 11658  1851 11907    0
  578   11338 14612  7829 14603    0
  579    2491  2492   493  6790    0
  580    5523  8639  1935 11858    0
  581    4398  7144  4400  7147    0
  582    9650 14843 13187 16672    0
  583     571  7311  4523 10878    0
  584    1937  5282  3193  8606    0
  585     540  1741  1574  2894    0
  586   14661 16585 11402 16594    0
  587    3886  9723  8058 11640    0
  588    4418  4423   305  7177    0
  589    7813 11325  7815 11426    0
  590    8041 11612  2383 15997    0
  591    5209 10944   318 11018    0
  592    3023  5007  1067  7912    0
  593   15122 16790 12008 16797    0
  594    5454  8442  3242 12047    0
  595      21  8138  5171 14888    0
  596   11188 14529  4801 14530    0
  597    1513  4201  2568 10017    0
  598    4509  4511  2728  7294    0
  599    2474  6656  4079 13541    0
  600    5154  7737  1829 11216    0
  601    6219  6566  3788 13085    0
  602    1111  1905   373  3134    0
  603    5198  8583  3185  8587    0
  604    5433 11906  8337 12196    0
  605    5064 11215  7669 14549    0
  606    1096  5144  1878  7724    0
  607    5043  8659  7970  8673    0
  608    3452  5698  2095 11766    0
  609    5455 11722  3288 14912    0
  610    5114  8086  1193 11668    0
  611    2788 11797  8240 14922    0
  612    5467  8588   671 12230    0
  613     124 11669  5501 12248    0
  614    1795  2966   609  4900    0
  615    1957  8353  5326 16484    0
  616    5503 12249  5502 14880    0
  617    7753  7761  2954 11290    0
  618    1167  6397  3338 12258    0
  619    3089  1089  1088     4    0
  620    6426 11702  3119 13109    0
  621    8121 11473  5154 11688    0
  622    1912  5191  3140  8175    0
  623    8455 15174 12071 15185    0
  624     403  2097  1216  3456    0
  625    2964  4783  2891  7612    0
  626    5685  8854  3447 12480    0
  627    1416  3999  3998  9958    0
  628    4471  7202   328  7204    0
  629   10163 10164  6728 13703    0
  630    4646 11012  7449 12471    0
  631    1569  7139  4394  7140    0
  632   10519 16413 14021 17216    0
  633    4323 12437  8793 12600    0
  634   14451 14962 14450 16319    0
  635    4807 11144  7601 11146    0
  636     585  1009   190  1010    0
  637    2054  5587  5584  5592    0
  638     726  1254   438  1255    0
  639     427  1269   429  2169    0
  640    2780  4605  4603  7395    0
  641    1690  7381  2849 10876    0
  642    4888  7771  7184 10759    0
  643     797  6332  3865  9666    0
  644    2959  4924  1781  7767    0
  645    3911 12668  9774 15547    0
  646    5806  9057  3513  9103    0
  647     374  8160  1907 12245    0
  648    1285  5963  3631  5964    0
  649    1255  1293   249  9091    0
  650    2207  3624   142  5958    0
  651    9582  9619  6260 13113    0
  652    4996  7905  2906 11440    0
  653    1182  5528  3300  8633    0
  654     922 10725  4390 14261    0
  655   13596 13914  4097 16069    0
  656    3118 11720 11693 14897    0
  657    6774 13724 13630 16095    0
  658    5752 12552  8934 15465    0
  659      74   418   417  2142    0
  660    2138  2161  1247  3570    0
  661    2442  4009  2427  4010    0
  662     568  4684  2826 10868    0
  663    3939  9862  6448 13441    0
  664    3616  5989  5944  6000    0
  665    3978  6500  1406  6501    0
  666     598  7682  4392 10744    0
  667    5708 11772 11741 14935    0
  668   11044 12682  7507 14441    0
  669    5242 11822 11812 14972    0
  670    1279  2179   434  5913    0
  671    3213  8332  5316  8334    0
  672    1249  3586  2183  5914    0
  673    4848 10714  4828 11263    0
  674    2868  7582  7581  7583    0
  675     585   587   190  1724    0
  676   13878 14488  4746 16528    0
  677     430   733   431  2168    0
  678     141  9099  9044  9105    0
  679     110  4866  3031  7737    0
  680     742  2174    77  2177    0
  681    2609 10424  6924 15551    0
  682    1562  1575   539  4399    0
  683     798  9646  2355  9726    0
  684    6982 10506  4308 15645    0
  685    3642  9211  3646 12787    0
  686     503   508   289  1459    0
  687     805 13277  9734 16004    0
  688   10540  4321   235 14069    0
  689     826   827    87  2430    0
  690    2161  3535  1247  9144    0
  691    2146  5868  5866  9108    0
  692    2047  5050  3376 12239    0
  693     422   431   430   733    0
  694    6495 13738 10243 13739    0
  695    4824  7171  2917  7694    0
  696     135   430   422   431    0
  697     815  1410   148  2420    0
  698      77  3694  2245  9136    0
  699   10416 12633   905 16945    0
  700    2182  2184  1280  3581    0
  701     736  2168  1268  2169    0
  702    3472  7209  5727 10783    0
  703   12045 14914  5180 14915    0
  704    5747  9217  8929 12553    0
  705    1539 13303  9752 13304    0
  706    5963  6014  3605  9194    0
  707    8810 12107  5394 12108    0
  708     191  2880   588  4781    0
  709    8364 11934  5330 11935    0
  710    5590  8700  5589  8707    0
  711       2   790   260  1369    0
  712    1456   853   495  1457    0
  713    5881  5890  1245  9134    0
  714    7873 11411   413 14667    0
  715   10640 10760  2642 14274    0
  716     239   429   236  1270    0
  717    3754  9510  6161 13969    0
  718   10081 10102  6657 16086    0
  719    2203  3622    38  3623    0
  720    2709  7238  4481 14312    0
  721    5015  7917  3030 11217    0
  722    2379  6412  3920  9787    0
  723    6351  9695   357  9706    0
  724    1362  2332   458  3853    0
  725     335   584   187  1017    0
  726    2474 13540 10047 16042    0
  727    4451  7223  2691 14216    0
  728    1592  4530  2738  4539    0
  729     499  1477   873  2521    0
  730    7019 14128  2633 16126    0
  731    3850  9864  6446 13274    0
  732   10660 14195  2644 14196    0
  733    1058  4884  2952  7749    0
  734    1568  2658   541  2659    0
  735    8002  8005  3049 11561    0
  736    6852 10286  1519 10321    0
  737    4968 12959  9444 15733    0
  738    2103 12479  8201 14936    0
  739    1330  9441  6543 15720    0
  740    2350  3858   808  6329    0
  741     296  9944  8375 13498    0
  742    9674 16009  9891 16151    0
  743    1370  1377   150  3868    0
  744    3954  9660  6258 13203    0
  745    5977  9179  3636 12768    0
  746    5872  9109  1261 12711    0
  747    1567  4394   919  4395    0
  748    3865  9677  6340 13214    0
  749    2332  3853   788  6323    0
  750    4356  4404   303  7160    0
  751      60  4906  2972  7792    0
  752     759 12870  5756 16975    0
  753    7861 11389  4957 11396    0
  754    4837  7701  7700 11249    0
  755    1944  3191  1943  3195    0
  756   14491 16529  7580 17162    0
  757    6199 12855 12833 15645    0
  758    7158 14159  7069 16391    0
  759   15863 17046  5079 17081    0
  760    3797  6536  4021  6556    0
  761     481   828    87  2430    0
  762    5530 12269  8644 14694    0
  763   13496 13499 13497 13553    0
  764    1416  4011  2442  4029    0
  765    1062 12903 11377 16571    0
  766     834  4043  4019  6581    0
  767    1371  2339  1370  3868    0
  768    9465 13221  3902 13280    0
  769    6802  9674  4213 13742    0
  770    2968  7789  4902 11309    0
  771    1628  4564  2756  4565    0
  772    2321  6463  3953  9606    0
  773    4108  4114  2515  6633    0
  774    1407  6499  3975  6811    0
  775     459  1370   150  1371    0
  776    4281 13652 13647 13653    0
  777    1409 13204  6342 13209    0
  778    6275  9587  6273  9955    0
  779   13124 15809  9594 15812    0
  780    1376  3866  2350  3867    0
  781   12055 15269 15253 16851    0
  782     499  1475   873  1477    0
  783    6783  6788  2547 10240    0
  784    1433  9975  6563  9979    0
  785     481   827   273  2433    0
  786   11882 14967  5296 16722    0
  787    1888  5149  1030  5150    0
  788    1132  1932   659  3174    0
  789     887  2472  2471  4201    0
  790    3887  6361  6359 13236    0
  791    2910 11240 11210 11243    0
  792    3870 13207   808 15870    0
  793    4073  4074  1447  6623    0
  794    3864  6333   795  9665    0
  795    2199  3639  3532  5843    0
  796    2883  7691  4813 11152    0
  797    6119  9406  6118  9408    0
  798     484   824   280  1423    0
  799    4273  6922  1531  6931    0
  800    2529  6700  4138 10121    0
  801      36  1082   630  1861    0
  802    1476  2525  1461  4126    0
  803    2462  9551  6236  9552    0
  804    3871  6341  2352  9897    0
  805     507   867   859  1462    0
  806    1832 11492  7944 14709    0
  807    4130 10141  6683 13634    0
  808    5852  5868  2146  9108    0
  809    9578 13796  3932 14889    0
  810   13748 13750  9916 13843    0
  811    8858 12489  8292 15010    0
  812    3835 13173 13141 15895    0
  813     858  1468  1462  2506    0
  814    6046  6049  3680  9299    0
  815    3258  8502  5403 15135    0
  816     290   856    93   857    0
  817    1217  2097   701  5694    0
  818    2542  6678   515 10008    0
  819   11578 14060  7003 14062    0
  820    4476  7254  1593  7255    0
  821   10050 13584  4068 13829    0
  822    6604 10014  4121 10172    0
  823     389  5192  3298  5465    0
  824    5804  9119  2154 15543    0
  825     873  2523  1478  4123    0
  826    3799  9401  6551 13508    0
  827     503   505   504   508    0
  828    1259  9102  5849 12705    0
  829   10352 16199 13744 17140    0
  830    1144 11924  8353 15015    0
  831    8458 12075  1152 13385    0
  832    2544  4167   286 13665    0
  833    2542  6727  1493 10065    0
  834    7061  7850  2250 11192    0
  835    6975 11961  9936 13488    0
  836    6738 10065  2540 10174    0
  837    2472  4201   887  6798    0
  838     580  9192  3630 12775    0
  839    1524 13844 13544 16040    0
  840      95 10377  6893 10378    0
  841    5216 10944  8875 11770    0
  842     430   431   135  2168    0
  843     490  6624  4082  6634    0
  844     858  1462   508  2506    0
  845    3771  9002  2258 12618    0
  846    4074  6606   843 10021    0
  847    6466  9891  3966 13473    0
  848    3207  8320  8314 12494    0
  849   12012 12176  8416 15266    0
  850    8466 15216 12100 16122    0
  851    6348  6355  2390  9683    0
  852    4091  4094  1463  4095    0
  853     248  2164  2143  5842    0
  854     492   854    94   855    0
  855    8560  8570  5451 15289    0
  856    2479  4078  4077  6629    0
  857    2510  4110  1469  4111    0
  858    1745 11145  7603 14509    0
  859    9093 12701  9102 12705    0
  860    6317 15834  3848 17037    0
  861    4255  6896   528  9050    0
  862    5790  9000  5997 12615    0
  863     457  6312  6287 13137    0
  864    4182  6768  2550  7033    0
  865    2571  6814  4211 13210    0
  866    3746  4011  2427  6548    0
  867    4697 12683  1689 12685    0
  868    7526 10824  7248 14361    0
  869    4121 10014   512 10172    0
  870    1787  4891  2962  4894    0
  871    2493  6647   493  6648    0
  872    6851  6853  6828 12050    0
  873    2649 10694  9012 12869    0
  874     218  1853  1081  1854    0
  875    5049  7981  3043 11546    0
  876    3464  5715  2095  8876    0
  877   10217 10595  1549 14101    0
  878    1078  6564  5096  8065    0
  879    3118  8127  5157  8146    0
  880    4133 13636 10123 16205    0
  881    8254  8255  3172  8345    0
  882    2519  4117   871 10146    0
  883    2390 13252  9732 13276    0
  884     744  3603  2150  5924    0
  885    6685 10118  9085 13633    0
  886    6672 10067  2517 13585    0
  887      33  4998  3022 11437    0
  888     368  4855  1879  7724    0
  889     171  1483   901  1484    0
  890    5393  8481  1973 12103    0
  891    7740 11268  4878 11279    0
  892     678  3080   117  8174    0
  893    1743  2893   540  2896    0
  894   14022 14324  4715 16400    0
  895    1670  7432  7417 10894    0
  896     605  2960  2891  7180    0
  897     574  4506  2727  4508    0
  898    3568  3571  2165  5867    0
  899    2903 11174  7635 14519    0
  900    7392 10945  8874 14369    0
  901    4343  7046   885  7047    0
  902    2174  2177   742  5908    0
  903    2781  7400   559 10951    0
  904    1580  2716   924  4489    0
  905    6584  9998  9994  9999    0
  906    2066  3414   696  5636    0
  907    2680  4428  1018 11296    0
  908   12745 15548  3522 15587    0
  909    1568  1567   304  1569    0
  910    2192  5946  3619  5954    0
  911     920  7150  4396 10735    0
  912    4472  4691  2684  7201    0
  913     252  2204  1292  2206    0
  914    9146 12729  5820 15587    0
  915     646  5167  3194  8157    0
  916    4466  7325  2701 10813    0
  917    5706 12502  1200 15458    0
  918    3483  5745  2858  5748    0
  919    5593  7638  3390  8710    0
  920     953  7349  4565  7352    0
  921      29  1620   950  2744    0
  922    5996  9222  8923  9223    0
  923    7069 10638  4358 10753    0
  924    4563  4565  2755 10907    0
  925    5880  5974  1300  9208    0
  926    1222  8888  7482  8890    0
  927    5661 11819  8835 12488    0
  928    2036  3351  2018  3353    0
  929    3157  8204  8198 14936    0
  930   12180 16858 15375 16897    0
  931    1603  2705   176  4474    0
  932   13968 16268  6958 16955    0
  933    2795  7421  1656  7522    0
  934    7391  8875   961 10942    0
  935    9049 16967  2594 17367    0
  936    3606  7569  7568  9185    0
  937   10520 10521  7513 11069    0
  938    4192  6789  1497 16128    0
  939    8782  8784  2059 12426    0
  940    2130 10424 10415 13904    0
  941   12891 15681  9341 17002    0
  942    3663  9194  9166 12555    0
  943    4863  7673  7672  7732    0
  944    4499 10855  7284 14333    0
  945    7191  7267   936 16462    0
  946    2809  4656  1671 10929    0
  947    1025  4833  2919  7609    0
  948    3071  4057   489  5098    0
  949    3483  5745   988  5751    0
  950    5992  9223  9218 12791    0
  951    5739 12530  8914 15473    0
  952    3659  6015  2227  9237    0
  953   15274 16813 15150 17325    0
  954     721  5883  3560  9134    0
  955     567  7472  4656  7473    0
  956     932  4448  2690  4462    0
  957    4509  4511  2115 10859    0
  958    7455 11022  4650 14429    0
  959     942  1607    54  2830    0
  960    7271 10650  2665 10804    0
  961    6623 10365  6615 17100    0
  962    8976 10522  6992 12589    0
  963    4434 10786 10766 14328    0
  964     564  7440  2799 10935    0
  965    7284 10855  7285 14333    0
  966    1615  7239  4467  7321    0
  967    7086 14298 10667 16436    0
  968    1536 13928 10438 16238    0
  969   10643 14210  4368 14212    0
  970    6097  9365  3713 12912    0
  971     101  2735  1612  2736    0
  972    5781  9382  2622 10563    0
  973    8368  8686  5052 16746    0
  974    3387  8701  5593  8716    0
  975   14172 16398 10649 17408    0
  976     191   590   336  1014    0
  977    1600  4458   937  7230    0
  978    4834  7700  2926  7704    0
  979   11641 11650  1387 14872    0
  980     606  1720  1002  1721    0
  981    2806   565  1669  7567    0
  982   12296 14153  8699 14201    0
  983    2690  7193  4449  7219    0
  984    1643  1642   957  2774    0
  985    3761  6110  3719  6111    0
  986    1013  1729   593  2884    0
  987    8474  8837  3250 11742    0
  988    5310  8324  2119  8973    0
  989    1780  7879  7764 11418    0
  990    4490  7271  7270 10650    0
  991   11410 12999  3736 13005    0
  992    1241  7858  3653 11392    0
  993    6216  6228  3784 13075    0
  994     312  1601  1596  2712    0
  995    6785  1505  4193 10241    0
  996    5788  8994  1235  8995    0
  997    4508  7469   574 10858    0
  998    4457  7151    98  7235    0
  999    2981  4911  2974  7778    0
 1000    6284 13134  2424 13140    0
 1001     108  1002  1001  1719    0
 1002    5726 10779  7205 10784    0
 1003    1688  4479  2715 10839    0
 1004    4398  7068  1564  7144    0
 1005    7066 10631  1564 10632    0
 1006    5485  5516  3310  8631    0
 1007    8258 11815  1925 14974    0
 1008    9753 14805  4297 16282    0
 1009     937  4459  2705  4493    0
 1010    5574 12247  5500 11674    0
 1011    7494 10874   976 14446    0
 1012    1906  3135   647  8156    0
 1013    4943  7835  4902 14622    0
 1014     638  1883  1098  1886    0
 1015    1695 11031  5735 15471    0
 1016    5990  9218  5991  9220    0
 1017    2704  7249  2737  7296    0
 1018    1226  8885  5728  8897    0
 1019    1434  2462  1432  6582    0
 1020    2954  7758  6208  9534    0
 1021   10994 14405  7428 14411    0
 1022    1902  5163  3131  8136    0
 1023    1910  8168  5189  8171    0
 1024   10729 14259 11258 16454    0
 1025    1019  2918   595  4787    0
 1026    1784  4783  2964  4895    0
 1027    1047  2963   607  4893    0
 1028    7299 10867 10866 10882    0
 1029    2968  4904   614  4983    0
 1030    4761 14267  7690 16456    0
 1031    1827  5023  5009  7914    0
 1032   10558 14118  4618 16341    0
 1033     762  2248   446  3702    0
 1034    4336 10217   302 10583    0
 1035    1189  5546  3281  8660    0
 1036    4005  6547  2438  9965    0
 1037    2339  2340  1374  3856    0
 1038    6973  8398  1541 16154    0
 1039    1089  3090  3088  5131    0
 1040    5996  9223  8923 12542    0
 1041    2015  3278   360  5446    0
 1042    4411  7164  1576 10745    0
 1043    2886  4764  2881  4765    0
 1044   10657 14192 10659 17220    0
 1045    1784  2891   345  2964    0
 1046    4199  4209  1510  6806    0
 1047     223  5119  2011  5124    0
 1048    1419  2434  2429  4037    0
 1049     853  1476   287  1494    0
 1050    3901 13142  6446 15833    0
 1051    1242 12823  9274 16431    0
 1052    2924  7700  1027  7701    0
 1053    2976  4985  1049  7794    0
 1054    2035  3304  1185  5539    0
 1055    5630  8781  3409 12427    0
 1056     573  8953  4473  8954    0
 1057    5521  5524  1182  8638    0
 1058    1197 12377  8755 16610    0
 1059    4977  9424  7882 13075    0
 1060     106  2824  2118  4676    0
 1061    3538  3553   247  9110    0
 1062    5996 12619  3652 15775    0
 1063    7357  7534  2841 10915    0
 1064    2843  7523  7350  8978    0
 1065    3196  5287  5284  8170    0
 1066    5574  8671  3367 14977    0
 1067    3238 12005  8411 15256    0
 1068    1094  1097    35  3105    0
 1069     362  1868   634  1869    0
 1070    1033  4865  2942  4866    0
 1071    1682  4682  2826  7490    0
 1072    6352  8057  3886 11641    0
 1073    6179  6186  3743  9489    0
 1074     370  8446  8422 11948    0
 1075    6027  9273  6988 10515    0
 1076    1372  2341  1374  3854    0
 1077    2012  3092   391  5124    0
 1078    1782  4924  2959  7767    0
 1079    5434  5441  3273 12194    0
 1080    8985 10563  5781 14020    0
 1081   11190 14537  7646 14792    0
 1082     853  1456   852  1476    0
 1083    3279  5188  1176  8163    0
 1084    2400  9898  6471 13466    0
 1085    6559  9973  2448  9977    0
 1086    3953  9606  6465  9888    0
 1087    2331  6322  3852  9657    0
 1088    5431  8563  1163  8564    0
 1089    9818 15077 15076 17077    0
 1090     127  7052  4346  7053    0
 1091   11637 17300 14855 17428    0
 1092   11491 12040  7943 15158    0
 1093     261  3859  2398  6330    0
 1094    4557 10902  7344 14254    0
 1095    6201  9518  3774 13065    0
 1096   13117 17033 15809 17034    0
 1097    1659  7431  7329 10888    0
 1098    1015  1731   334  4773    0
 1099    2907 14520  7830 16539    0
 1100    6844 10309 10307 16165    0
 1101    3771  5787  2286  8993    0
 1102   10430 12642  4278 12643    0
 1103    3773 12664  9062 12665    0
 1104    3317  5205  3316  8181    0
 1105    5183  8157  3134 11738    0
 1106    8847 12445  3153 12479    0
 1107    3122  5168  5164 11864    0
 1108     151 13107  6257 15831    0
 1109     119  3102  1885  5146    0
 1110    1069  7921  7920 11473    0
 1111    1067 11437  7912 11447    0
 1112    4884 11285  4883 11332    0
 1113     659  3174  1932  5252    0
 1114   11256 11257   691 16745    0
 1115    4861  7729   339  7730    0
 1116    1994 11707  8134 15006    0
 1117    5440  8282    66 12182    0
 1118    3218 11922  8351 17233    0
 1119    5429 12205 12041 15160    0
 1120      19  7856  4955  7857    0
 1121    4435  7201  7198 10776    0
 1122    1606  7312  4524  7314    0
 1123    7229 10802  1588 14306    0
 1124    7653 14684  7650 15673    0
 1125    4123 10173   873 13676    0
 1126    1495 10238  4345 13735    0
 1127    3556  5894  2155  9135    0
 1128   12137 16347 15426 17202    0
 1129    7239 10882  2737 10883    0
 1130    7620 11159  7065 16566    0
 1131   11727 12054  1521 16178    0
 1132    2037  3301   392  5479    0
 1133    4637  7453  7440 14422    0
 1134    7215 10686  4440 12516    0
 1135    3473  8896  7203 12572    0
 1136    2065  8985  5781  9379    0
 1137     101  7287  1613  7389    0
 1138   10683 14219 10676 14220    0
 1139    5735  8908  2825 11031    0
 1140   11031 11036  4671 14435    0
 1141    7350  7523   231  8978    0
 1142    1304  9509  5819 13058    0
 1143    4189  6779  1501  6781    0
 1144    4523 14342 11027 16480    0
 1145    3927  9826  6434 15982    0
 1146    2737 10882  7321 10883    0
 1147    5255 11799  8241 12463    0
 1148    7302  7471  1681 10868    0
 1149    5328 11871  8319 16708    0
 1150      83  1367   260  1368    0
 1151     478   829   160  1425    0
 1152    1989  3324  1165  5532    0
 1153    2033  5505  5204  8177    0
 1154    4360 14591  7071 16564    0
 1155    5118  8092  1908 12274    0
 1156    4231 10311  2573 10313    0
 1157    5425  8540  5426 12275    0
 1158    1174  5129  3096  8099    0
 1159    6993 12810   910 14963    0
 1160    8335 11535  3378 14758    0
 1161    3975  9921  2419  9946    0
 1162    4804  7653   622 11196    0
 1163    1887  3102   367  3106    0
 1164    5243  8252   219 11813    0
 1165    1787  7615  4776 11151    0
 1166   10518 12817  6986 15632    0
 1167    1871  5125  1086  5127    0
 1168    4337  6743  2633 10182    0
 1169    2026  7994  5055 11552    0
 1170    2836  4708  4707  9251    0
 1171    5053 11548  8670 12282    0
 1172     639  1878   213  1879    0
 1173    3304  5539  3350  8605    0
 1174    7681  7705  7609 11226    0
 1175    3296  8582  8166  8587    0
 1176    5174 11719  8141 17381    0
 1177    4390 10725  2699 14261    0
 1178    8474  8475  5207 11772    0
 1179    6109  9393  1814  9394    0
 1180    3111  5149  1888  5150    0
 1181    8663 15055 12279 15313    0
 1182    2037  3304  1169  3354    0
 1183    2072  5642  5638  8805    0
 1184   11585 13958 10544 14801    0
 1185    6502 13498  9944 13499    0
 1186   10467 11979  1073 13959    0
 1187    8182 11742   700 12486    0
 1188    4074  6606  4063  6607    0
 1189    4886  7766  1781  7767    0
 1190    9253 11054  6023 14452    0
 1191    1110  8137  3123  8158    0
 1192     208  3315  1087  5489    0
 1193    1074  9335  6076  9336    0
 1194    7776 11223  4797 14552    0
 1195    5480  5536  2001  8597    0
 1196    9206 12770  9185 12771    0
 1197    3172  8298  8253  8614    0
 1198    5609  8784  8750 15159    0
 1199    5100  5106   124  8076    0
 1200     675  8536  5420  8537    0
 1201    1031  5148  1892  8118    0
 1202     636  3096  2034  5206    0
 1203    6053  6055  1315  9308    0
 1204    7512  7523  2843  8978    0
 1205    5225  5227  1920 14937    0
 1206    1839 11188  7643 11850    0
 1207    5190  5493  1913  8162    0
 1208    2017  5117  1177  8096    0
 1209    7824  7826  2991 14600    0
 1210    8765 14697 12394 15409    0
 1211    1436  6233  3796  6234    0
 1212   11007 11895  4637 14422    0
 1213    4451  7224  4443 10673    0
 1214      64  5128  3086  8098    0
 1215    2937  2943  1036  4867    0
 1216     716  3765  2285  6180    0
 1217    1748  5003  2910  7632    0
 1218    1999  5480  3302  5529    0
 1219    8441 11970  8387 12042    0
 1220    5707 11755  4597  8875    0
 1221    1931  8298  3173  8301    0
 1222   15199 16833 12082 16879    0
 1223      21  5170  5169  5171    0
 1224    5133  8106  3104 12268    0
 1225   13200 15867 15833 15868    0
 1226    3156  8870  5220 12500    0
 1227    2377 11514  7959 14736    0
 1228    1990  3095  1165  5130    0
 1229    4776  7627  7626 11300    0
 1230    2354  3985  3877  3995    0
 1231    3136  5194   649  8162    0
 1232    8992 12607  6004 15513    0
 1233    2727  4507   574  4508    0
 1234    4632  7329  2794 10890    0
 1235    2754  4561  4560 10906    0
 1236    3371  5556  1032  5560    0
 1237    4701  7248   573 10821    0
 1238    6149  9445  6107 14668    0
 1239   11948 15058  8374 15060    0
 1240    8524 12162  3265 12170    0
 1241    5261  8259  8247  8261    0
 1242    8778 11483  3037 12421    0
 1243    4803  7651  1747  7652    0
 1244     373  1114  1113  1905    0
 1245    1674  4660  2812  7302    0
 1246    6213 11422  3780 11424    0
 1247    1604  7272  4492 10913    0
 1248   10279 13770 11726 16163    0
 1249    2731 10870  7305 10871    0
 1250     243  1278   739  2182    0
 1251    2889  4423  1737  4768    0
 1252    6571  9991  2458  9993    0
 1253     475  2455  1434  4045    0
 1254    3419  5679  2074 12442    0
 1255     107  4784  1574  7774    0
 1256     336  1724  1007  1740    0
 1257    2809  7380  1671 10930    0
 1258     976  7476  4669 11035    0
 1259    4586  7550  7381 10975    0
 1260    6108 11394  9394 14651    0
 1261    8208  8875  1915 11770    0
 1262    1719  1721  1001  4775    0
 1263    7847 14637 11376 15690    0
 1264    1616  4535   948  4548    0
 1265    1595  4477  4474  4478    0
 1266     561  7421  4633  7422    0
 1267    3660  9212  2225 12789    0
 1268    8920  9226  2858 15478    0
 1269    4283  6939  6768 10583    0
 1270    7134 10730 10727 11259    0
 1271    1657  7370  4574 14352    0
 1272    3662  8921  1702  8923    0
 1273    1185  5495  2036  5497    0
 1274    8763 11478  1198 15398    0
 1275    3258  5404  1143 12116    0
 1276    6515  9924  1409  9946    0
 1277    2218  9211  3642 12787    0
 1278    1466  4081  2508  6676    0
 1279   12911 14150  7848 16386    0
 1280   13193 13194  9653 15851    0
 1281    6912 10410  2127 16220    0
 1282    3563  5885  1304  9123    0
 1283    1329  6545  3740  9570    0
 1284    1454  6642  4087  6644    0
 1285    6152  7871  1332 17017    0
 1286    1298  5954  5952  5957    0
 1287    3633  9198  5969 12785    0
 1288    1294   748    38  3623    0
 1289    1322  6134  3731  9332    0
 1290    2138  3570  1247  5891    0
 1291    4620  7385  4623  7422    0
 1292     423   733   725  2162    0
 1293    6643 10063  1493 10165    0
 1294    1049  2971  1791  2976    0
 1295    4573  7367  7365  8969    0
 1296    5876  5879  1261 12711    0
 1297    1929  3174  1928  5252    0
 1298    3873  6521  6340  9676    0
 1299    5770  8967  3493  8968    0
 1300    3561  3564   411  5877    0
 1301    1317  2244  2189  3693    0
 1302    3497  8975  8325 12588    0
 1303    6064 12727  9769 13328    0
 1304    6724 10375  2589 10376    0
 1305    9200 12749  7588 12771    0
 1306    1307  5942  3616  5987    0
 1307   12325 15344 12373 15346    0
 1308   10222 16016 10447 17091    0
 1309     236   417   137  1270    0
 1310    1043  7768  7767  7770    0
 1311    1011  1736   582  7695    0
 1312    1343  6208  3780  7763    0
 1313    7755 11276  4878 11289    0
 1314    4543  7316  4498  7326    0
 1315    4492  7356   939 10844    0
 1316   10789 16408  7214 16425    0
 1317    7743  7786  4870  7900    0
 1318    6255 13202  3829 15869    0
 1319    5383  8465  3248  8468    0
 1320      73   732  1264  1266    0
 1321    3895  3896   161  8064    0
 1322    2185  3591  1289  3596    0
 1323    4232  6853  6851 10320    0
 1324    1277  1318  1274  3579    0
 1325   12683 12685  4697 15558    0
 1326    6617 10036 10030 13548    0
 1327    2342  3858   808  3870    0
 1328    3656  6004  2225  9214    0
 1329    2217  3562  1281  3641    0
 1330     445   760   144   761    0
 1331     137   429   239  1270    0
 1332     736  1268   734  2169    0
 1333    1268  2168   241  2169    0
 1334    1281  3645  2216  5884    0
 1335    1253  1268   736  1270    0
 1336     418   429   137  1270    0
 1337    2438  9962  4004  9964    0
 1338    2188  2217  1281  3641    0
 1339    1276  5908  3642  5980    0
 1340    6017 14375   710 16488    0
 1341     423   431   422   733    0
 1342     427   429   240   736    0
 1343     236   239   238   429    0
 1344     136   428   238   429    0
 1345    8190  8191  4650 11752    0
 1346     746  5926  2185  5927    0
 1347     248  1265   421  2164    0
 1348    2868  7582   578 11130    0
 1349     994  2874  1714  5959    0
 1350    2117  3491  1228  5766    0
 1351   11976 11977  1843 15192    0
 1352    1305  3644  2219  5983    0
 1353    9078 16924 15494 17357    0
 1354     749  1293  1255  9091    0
 1355    6937 10442  4183 13723    0
 1356    1274  2179  1279  2180    0
 1357      73   427   426  1269    0
 1358    6183  6184  3763  9497    0
 1359   11991 15090  2613 15105    0
 1360     579 14495 11137 14502    0
 1361     249  3536  1255  9091    0
 1362    1301  1302   752  3627    0
 1363     734  1266   736  2169    0
 1364     722  1249    24  1250    0
 1365    2176  3580   743  3600    0
 1366     281  1440   838  2466    0
 1367     421   733   430  1268    0
 1368   10092 13655  4281 15562    0
 1369     734  2163   139  2166    0
 1370    3843  6312  1363  6314    0
 1371     240   429   418   736    0
 1372    3555  9127  3556 15578    0
 1373     422   430   421   733    0
 1374    2165  5867  3573  5894    0
 1375    1263  5867  2165  5894    0
 1376     241   430   428  2168    0
 1377   12536 12561  3482 15589    0
 1378    3785  6210  2291 11292    0
 1379    5708 14935 11741 15432    0
 1380    6998 14051 10539 16314    0
 1381     721  3588  3566  9134    0
 1382     751  5842  3532  5843    0
 1383     749   438  1294  2144    0
 1384     749  1255   438  2144    0
 1385    2205  3624  1297  5974    0
 1386    6127  6133  3728  9422    0
 1387     722  1251    74  1252    0
 1388     330 12535  8962 12804    0
 1389   10077 13587 10080 13588    0
 1390    5873  9113  2154  9114    0
 1391    5864  9094  1258  9101    0
 1392    2146  9108  5866 12711    0
 1393     744 15526  5923 15527    0
 1394    7816 14587 11327 14597    0
 1395    3437  8859  8187 14932    0
 1396    3571  5867   425  5895    0
 1397     977  4675  2826 11032    0
 1398    1039  9533  3785 13076    0
 1399    3887  6356  2358  9698    0
 1400     637  3105  1098  3282    0
 1401     124  5501  3331  8075    0
 1402    5844  5944  5941  9178    0
 1403    5945  5956  2202  9191    0
 1404    9056 12659  5804 15543    0
 1405     428  1269   241  2169    0
 1406    9179 12766  2214 12767    0
 1407    3656  9125  2226  9228    0
 1408    1738  1740  1722  2892    0
 1409    2159  3566  1263  5877    0
 1410    1300  2212   439  5843    0
 1411    2178  3581  2182  5909    0
 1412    1258  5853  3543  5857    0
 1413    6352  6596  4054  8057    0
 1414    4773  4778   192  4779    0
 1415    2816  4672   322 11037    0
 1416      74   724   723  2142    0
 1417     426   734   241  2169    0
 1418    2195  9201  5972 12779    0
 1419     135   431   236  2168    0
 1420    5831 10460  6948 13898    0
 1421     432  2167  1253  3570    0
 1422    1260  3601  2190  5869    0
 1423    1818  9433  6142  9435    0
 1424     247  3552   712  3557    0
 1425    1585 11367 11312 14591    0
 1426    3642  5896   740  5982    0
 1427    6728  6738  6600 10163    0
 1428    6167  9758  9469 13024    0
 1429    3533  3639  1291  5944    0
 1430    5964  9117  3554 12776    0
 1431    3820  6272  2312  6275    0
 1432    3084  5116  5115  8092    0
 1433    5378 12077  8459 17178    0
 1434    3544  5871   730  9093    0
 1435    9617 15838 13153 15847    0
 1436    9653 13436  6319 15865    0
 1437    6747 10189 10188 10194    0
 1438    1273  1274   144  3692    0
 1439     341  7733  2942 14551    0
 1440    6392  9477  3909 13032    0
 1441    5759  9077  8945 12681    0
 1442    5645  8800  1205 12442    0
 1443    9037 10399   903 13883    0
 1444    2827  3476   976 11035    0
 1445    4698  8955  4702 12571    0
 1446   10337 15133  5619 16804    0
 1447    5782 14420 10994 17416    0
 1448    2155  5878  3557 12709    0
 1449    6778 10235  4187 13733    0
 1450    5811  9048  2590 12653    0
 1451     615 11333  4933 14600    0
 1452    2900  7623  4788 11314    0
 1453    1318  3579  2245  3696    0
 1454    4287 10461  6947 13967    0
 1455   10470 13964 10425 16270    0
 1456    4012  6546  1426  6565    0
 1457    3793 13077  9539 13080    0
 1458    5284  8170  5287  8632    0
 1459    6974 11993  8398 13747    0
 1460    9285  9288  6101 12836    0
 1461    2382 16665 15076 17313    0
 1462    2146  5866  3537 12711    0
 1463     513  4159  2539  6667    0
 1464    1344 12997  9545 13089    0
 1465    2367  6357  3888  8049    0
 1466    9451 13100  3732 15749    0
 1467    3068  6357  1075  9699    0
 1468    2581  8446  5368 11731    0
 1469    8579 12226  8578 12227    0
 1470    5262 11657  3178 14979    0
 1471    7265 10769  4487 10795    0
 1472    3835  9638  9636 13173    0
 1473    7941 11484  5028 15293    0
 1474    6410 13260  9802 15955    0
 1475    2418  6497  4228 13209    0
 1476     984  5763  2837  7509    0
 1477     458  6460  2322  9643    0
 1478      87   826   477   827    0
 1479     917  2896  1563  7146    0
 1480    9940 13483  6510 16014    0
 1481    1423  2435   823  6236    0
 1482    3722  6118   146 12973    0
 1483    6243  6251  3805  9568    0
 1484     823  2435  1423  4003    0
 1485    1871  2010   681  3326    0
 1486    1944  3191  1138  3340    0
 1487     630  1857    36  1861    0
 1488    5603 12337  8735 12340    0
 1489    4305 13837 11989 16759    0
 1490    5813 13922 10432 16235    0
 1491    9242 12777  6015 15613    0
 1492    6889 10359 10166 13669    0
 1493    1936 11843 11429 14676    0
 1494    9897  9899  6341 13213    0
 1495   12043 15162  8441 16769    0
 1496    6563  9973  4024  9975    0
 1497    9941 13494   897 16021    0
 1498    3953  9887  1400  9888    0
 1499    7008 12498 10556 15454    0
 1500    6345 13284 13217 15874    0
 1501    3450 12474  8841 15447    0
 1502   16405 17006 14187 17213    0
 1503     379  3076  1856  5249    0
 1504    3840  6302  2326 10299    0
 1505    1408 13481  6972 16013    0
 1506    3817  9585   784  9587    0
 1507    9855  9856  1396 16003    0
 1508    3179 12263  8263 14985    0
 1509     808 13207  9884 15870    0
 1510   13305 16784  2394 17387    0
 1511    1169  8605  3310  8631    0
 1512    5183  5275  5273  8284    0
 1513    3930  9830  5265 13399    0
 1514   11971 15078  1150 15082    0
 1515    8185 11744 11012 11745    0
 1516    8582 12232 11724 14913    0
 1517    3869  6335  1400  9607    0
 1518    6105  9484  9483 15723    0
 1519    3983  9938  8375 16014    0
 1520    2424  6342  3877 13140    0
 1521     152  3995  1413  3997    0
 1522    2457  9990  6580  9995    0
 1523    2139  5912   420 12730    0
 1524    1411  3990  2423  6523    0
 1525    2298  4043  4019  6555    0
 1526     821   822    88  1418    0
 1527    1466  4108  2515  6633    0
 1528     790  1372   460  1374    0
 1529     794  2339  2337  2340    0
 1530    5722  8890  3466 12543    0
 1531    6241 16025  3799 16027    0
 1532     829  2430  1425  4000    0
 1533    6916  6917  4266 12677    0
 1534     260  2343  1368  2344    0
 1535    9252 12819 10511 14006    0
 1536     158   484   835  1423    0
 1537    2432  6538   155 13094    0
 1538    6247  6252  1349  9565    0
 1539    3888 11648  9709 13245    0
 1540    2877 12302  5587 14202    0
 1541     834  4020  2459  4045    0
 1542    3791  6224  1435  6225    0
 1543     158  2436   276  4003    0
 1544    1419  2453   476  4038    0
 1545    9573 13788  6261 15805    0
 1546    9695 13218  3884 13220    0
 1547    9526 13069  6205 13316    0
 1548   11597 14825  2382 16664    0
 1549     826  6254   274  9571    0
 1550    2098  7014  4325  7021    0
 1551      42  6314  6313  9637    0
 1552    4178 10208  6764 13705    0
 1553   11590 14814  2570 14815    0
 1554     865  6614  2517 10069    0
 1555   11190 14604  7646 16567    0
 1556    1329  9449  6253  9570    0
 1557     483  1422   275  1423    0
 1558   12178 15272  8531 16858    0
 1559   11577 15372  5071 17400    0
 1560     456  3826  2317  6273    0
 1561    6221 13088  1344 13089    0
 1562    8015  9302  5067 11570    0
 1563     310  7531  4715 14289    0
 1564   11275 15792  7747 17031    0
 1565    6559  9989  9973 13511    0
 1566    4054 11630  8057 14853    0
 1567   10232 12690  5070 13938    0
 1568    3490  8956  5763 11047    0
 1569      92   861  1460  4126    0
 1570    8615 12249  2016 14880    0
 1571    5051  7974  3046  7982    0
 1572    9456 13011  3757 15752    0
 1573    7258  7496  4480 10831    0
 1574    1510  4209  2568  6806    0
 1575     843  4074  2475  6606    0
 1576     875  2532  2531  6703    0
 1577    7098  7558  7557 11100    0
 1578     913  7031  4331 10571    0
 1579    6706  6875  2516 13621    0
 1580    7017 10216  4328 10580    0
 1581   13166 13196  9851 13426    0
 1582    5646  5710  3463  8878    0
 1583    2566  6807  6800 13739    0
 1584    2629  7031  7028 10592    0
 1585    2138  3558   411  3569    0
 1586     253 12773  9166 15612    0
 1587   10059 16050 13567 17104    0
 1588    5393  8484  3255 12099    0
 1589   11593 13297  5085 14823    0
 1590     270  9858  6448 13433    0
 1591    3390  5591  1074  7651    0
 1592    2272  6154  3998  6533    0
 1593    9659  9660  6330 13203    0
 1594    4213  6802   297  6813    0
 1595     852  1478   288  2522    0
 1596     512  2523   873  4123    0
 1597    6912  9072  4287 12639    0
 1598    9364 12927  9367 15706    0
 1599    1524  6865  4239 13544    0
 1600    2497  2498  1462  2523    0
 1601    6380 14821 13296 16661    0
 1602    4211 13754  1516 13755    0
 1603   12354 14073 15365 16348    0
 1604    7678  8695  2055 12295    0
 1605    7038 10190  2632 10600    0
 1606     418  3572  2142  5892    0
 1607     504   505   506     1    0
 1608    3258 15135 12015 15232    0
 1609    3530 12695  8221 13628    0
 1610    3454  8877  5695 12095    0
 1611    2495  2501   510  4094    0
 1612     852   860   288  1478    0
 1613   10500 13993  4306 15091    0
 1614    2508  4081   867  4121    0
 1615     872  4112  1472  6668    0
 1616    4239 10365 10051 13853    0
 1617    7761  9534  2954 11290    0
 1618    9348 13355  3706 15946    0
 1619     851  6646  4088  6761    0
 1620    6047  9005  3681  9522    0
 1621    3878  6343   474  9894    0
 1622   14031 14699 10530 16908    0
 1623     164  1446   866  2482    0
 1624    2625 12123 10556 12498    0
 1625    6651 10068  6714 13576    0
 1626    1040  6225  3790 13078    0
 1627    2777 10947  1647 14369    0
 1628      13  1927  1132  3175    0
 1629    2151  5925  3603  9099    0
 1630    6895 10369 10009 13859    0
 1631     474  9894  6467 13752    0
 1632    4064  6625  6611 13534    0
 1633    5717  8891  8881 12504    0
 1634    4158  6681  2530 10142    0
 1635    6508  9942  3982 13485    0
 1636     499  1475  1461  2525    0
 1637     218  1080  1852  3075    0
 1638    6646 10066  6761 10212    0
 1639    1470  4122  2522  6604    0
 1640    1170  5197  2003  5280    0
 1641     164  4080  2505 10078    0
 1642    1535 12691 10225 13723    0
 1643     851  6761  4167 10212    0
 1644     501   855    94  1468    0
 1645     859  1468   858  2506    0
 1646    5419  8567  8566 12214    0
 1647    1451  2507  2481  4107    0
 1648   11716 12233  8582 14909    0
 1649    2381  9807  9806 13371    0
 1650     702  5696  2556  6782    0
 1651    4190  6740  1503 10176    0
 1652    1702  6012  4728  9240    0
 1653    2315  9580  6266 13111    0
 1654     291   859    94  2506    0
 1655    2144  5955   439 12700    0
 1656    3814  6268  2308  9634    0
 1657    6747 10600 10194 10601    0
 1658    3159  8197  5697 11763    0
 1659     902  5860  4254  9097    0
 1660    1668  7453  4649 11016    0
 1661    3734  4974   196  7881    0
 1662     850  1457   495  6739    0
 1663     167  6794  4196 13707    0
 1664    3635 12782  9202 12784    0
 1665    1321  6067  3727  6070    0
 1666    3061 12907  7847 15690    0
 1667    3870  6325  1414  6326    0
 1668    6830 13387  1967 16829    0
 1669    7845 16581 12982 17266    0
 1670    6507  9922  2415  9929    0
 1671    8265 11834  8130 13109    0
 1672     816  4228  3986  6282    0
 1673    2598 10425 10414 13912    0
 1674    5295  8300  1931  8614    0
 1675    5400 11909 11494 11910    0
 1676    1320 12734  6204 12978    0
 1677     612  4976  3012  4978    0
 1678    1429  4020  2446  4036    0
 1679    6846 13809 10293 15848    0
 1680    1363  1365   787  2332    0
 1681    9094 12702  3545 12707    0
 1682    1661  1664   970  2802    0
 1683    2397  9645  3953  9887    0
 1684    2412  8378  3976  9923    0
 1685    9682 13219 13217 15872    0
 1686    2540  4162  2542  4163    0
 1687    4154  6727  6600  6728    0
 1688    4184 13672 10228 16289    0
 1689     871  4144  2518  6715    0
 1690   10461 10474  6948 13951    0
 1691    6707 10147  6933 13642    0
 1692    3289  5460  3292  5469    0
 1693   15147 15268 15148 16812    0
 1694    2840  4707  1692  7419    0
 1695    6514  9924  6513  9946    0
 1696    2000  3306  3304  5474    0
 1697    3464  5709  1220 12095    0
 1698    1462  1468   859  2506    0
 1699    4864 11468  5016 11471    0
 1700     508  1459   503  1462    0
 1701    1353  3817  2342  9585    0
 1702    8751 15157  5034 16826    0
 1703    5180 11727 11726 12046    0
 1704   11636 13368  3921 16681    0
 1705    2342  3861  3860  3862    0
 1706    1429  3810  2446  4023    0
 1707     285  1477  1457  2545    0
 1708    1487  2541   878 13666    0
 1709    1300  5974  2206 12766    0
 1710    6839 10293  3842 10304    0
 1711     744  3603  2191  5923    0
 1712    6723 10161 10055 10368    0
 1713    2498  4089  2511  4110    0
 1714   10250 16149 13740 17088    0
 1715    9164 12752  1229 14499    0
 1716     266  6369  6294  9621    0
 1717    1476  4123  4122  4125    0
 1718     814  6338  3975  9671    0
 1719    4112 10100  1474 10156    0
 1720    1476  1478   852  4122    0
 1721    3975  6497  1407  6811    0
 1722    4065 13537 10028 13844    0
 1723    6622 13561   888 16047    0
 1724    2185  5927  1262  9122    0
 1725    4241 10096 10075 13583    0
 1726   10030 13548  4248 13850    0
 1727    9142 15549 13072 16969    0
 1728    1285  5964  5962 12776    0
 1729   10952 10973  1651 14362    0
 1730    7420  7521  4622 14394    0
 1731    5419  8533  3266  8535    0
 1732    3708 12845  9292 12896    0
 1733     803  9846  6437  9847    0
 1734    1855  3076   378  5249    0
 1735    6991 10520  2843 10521    0
 1736   12020 12058  1151 12215    0
 1737    4088  6648  1455  6790    0
 1738    4470  7247  7246 10822    0
 1739     309  2698  2690  4448    0
 1740    4243  6764  2586 10202    0
 1741    2809  7380   975 11083    0
 1742     317  4576  4550  7459    0
 1743    5649  8802  5712  8808    0
 1744   13880 16217  9201 17163    0
 1745    2861  4739   991  4740    0
 1746    1475  2498   165  4089    0
 1747    7031 14106  2630 16131    0
 1748     426  1269  1266  2169    0
 1749     923  4785  4399  7147    0
 1750    7536 12526  4671 15471    0
 1751      11  1579   924  1580    0
 1752    3415  5639  1203 12481    0
 1753    2637 13683 10570 14093    0
 1754    1223  4510  4437  7202    0
 1755    8767 12401  5332 15404    0
 1756      32  1566  1565  4401    0
 1757   15037 15038  7712 16444    0
 1758    1015  1732   192  2885    0
 1759     592  1725  1018  4774    0
 1760    4336  7038  1549 10595    0
 1761      10  1102   601  1103    0
 1762     928  7151  4402  7152    0
 1763    2707  4477   550  4478    0
 1764    4724  7546  2784  7547    0
 1765    3651  8991  5995  9222    0
 1766    1581 10780 15468 10799    0
 1767    4470 10819  7252 10825    0
 1768   12144 16813 15239 16848    0
 1769    1739  7611   187 11148    0
 1770     584  1004  1003  1722    0
 1771     191  1725   588  2880    0
 1772    8549  8551  1984 12146    0
 1773      54  1685   942  7312    0
 1774    1683  1684   183  4678    0
 1775    4705  7518  7517 14404    0
 1776    4117  4118  1474 10156    0
 1777     948  4548  4535  7320    0
 1778    5656 15020  3428 15440    0
 1779    1011  1730  1727  4770    0
 1780    1642  1643    30  4553    0
 1781     231  4634  2795  7351    0
 1782   10729 11258  7161 16454    0
 1783   12558 15485  7505 15486    0
 1784    1018  1725   592  2880    0
 1785     584  1017   335  1722    0
 1786    4585 10978 10976 11087    0
 1787    1742  2879  1018  4422    0
 1788    8714 10714  1028 10728    0
 1789    5728  8901  1226 10689    0
 1790    4693  7289  2729  7503    0
 1791     953  7353  4565 14354    0
 1792    5392  8479   911  8480    0
 1793     959  1642  1643  2774    0
 1794    2703  7526  7525 10819    0
 1795    6086 15701 15698 17009    0
 1796    2075  5645  3412  8807    0
 1797    2759  7358  4567  7359    0
 1798     916  4464  2665  7236    0
 1799    9277 12565  6035 12824    0
 1800   15055 15313 11934 15315    0
 1801   11039  1609  7297 10865    0
 1802     892  6480  6459  9882    0
 1803    1154 12111  5401 14099    0
 1804    7391 10943   318 10944    0
 1805    4523  7464  1611 11027    0
 1806    4545  4558  1628  7328    0
 1807    7016 10182  6741 13686    0
 1808      30  1640  1612  1641    0
 1809    2204  2212  2206  9190    0
 1810    4519 10930  7380 14359    0
 1811    1570  4412  2672  4413    0
 1812     923  7164  4429 10763    0
 1813     551  4460  4459 10826    0
 1814    1675  2734   325  4662    0
 1815    2643 15663 14615 16392    0
 1816     960  7449  4646 11015    0
 1817   11049 14436  7510 14447    0
 1818    9762 13069  9418 15785    0
 1819    7482 11075  4671 14467    0
 1820    3348  5203  2030  8177    0
 1821     884  4169  2099  5693    0
 1822    3455  5694   702  5698    0
 1823    2771  4589  4588 10940    0
 1824    6969 14810 14809 15113    0
 1825    2108  4685   976  7494    0
 1826    1667  2801   972  2802    0
 1827    7308  7313  2732  7525    0
 1828    8541  8670  5053 12184    0
 1829    4816  4868  1773  7673    0
 1830    3392 11505  7967 14725    0
 1831    3075  5106  3076  5107    0
 1832    1950 11873 11870 15445    0
 1833    2098  8213  5227  8215    0
 1834    1584  7203  2685  8904    0
 1835     832  4013  2442  9963    0
 1836    5326 11898  3221 16484    0
 1837     128  8480  3255 12098    0
 1838   10893 14344   329 14345    0
 1839      12   969   562   971    0
 1840    2706  7253  4474  7257    0
 1841    3153 12486  8860 15452    0
 1842    7114 10710  7079 10713    0
 1843   14248 16748 14253 17235    0
 1844     751  3532  2138  5843    0
 1845    1211  5684  2085  8834    0
 1846    4686  5766  1682  7495    0
 1847     311  1598    99  2713    0
 1848    9249 14388  7413 16498    0
 1849    3480  5771  1228  8913    0
 1850    1556  7558  7104 14229    0
 1851    1247  5911  3534  5912    0
 1852    7108  7857  7109 14241    0
 1853    1767  8112  2935  8119    0
 1854    4518  7283   981  7303    0
 1855    2826  4684  1681 10868    0
 1856    7263 10837  4486 14285    0
 1857    6078 12936  9374 16308    0
 1858    4133 10127  6693 13636    0
 1859   10388 13872   713 13873    0
 1860    2771  4590   956  7388    0
 1861    2848 10862  8885 12507    0
 1862    3532  3639  2199  5845    0
 1863    2742  4535  1616  4548    0
 1864    7974  7991  1835 11537    0
 1865     923  7147  4398 14277    0
 1866    9186 14477 12772 15611    0
 1867    2728  4510   706  4511    0
 1868    1951  8353  5308 11924    0
 1869    4920  7807  1055 11317    0
 1870     916 10649  7075 10808    0
 1871    1617  7322  4543 10886    0
 1872    2731  7303  4518  7305    0
 1873    2734  7467  4663 11029    0
 1874    4670  7487  1231 11036    0
 1875    8396 13837  2613 11991    0
 1876    2783  7545  1233 14363    0
 1877     311  1578  1577  2713    0
 1878    3073  3075   629  5107    0
 1879    2760  7247  4571 10822    0
 1880    2590 10381  6691 12655    0
 1881    6030  9257  5753 12567    0
 1882    7584 11132  1713 14477    0
 1883      13  1929  1133  5252    0
 1884    6731 10170  6759 13675    0
 1885    2156  5879  1261  5968    0
 1886    5719  7485  1710  8887    0
 1887    1268  1270   134  2168    0
 1888    2989  7827  4936 11336    0
 1889    4273 10433 10126 13640    0
 1890    2108  3476   976  4685    0
 1891     955  4580  4579  7377    0
 1892    2794 10890  7329 14343    0
 1893    1279  2244   737  3579    0
 1894    4660  7462  2732 10863    0
 1895   13909 13964 10425 17108    0
 1896    2204  3628  3627  9191    0
 1897    2184  5847  1280  5887    0
 1898    7915 11451  3029 11453    0
 1899    3776  9499  6204  9524    0
 1900    9306 12867 10626 16999    0
 1901    2955  4974   612  4976    0
 1902    6201 13067 10464 15783    0
 1903    5790  5791   409 12615    0
 1904     990  1705  1704  1706    0
 1905     198  1793  1051  2974    0
 1906    5872  5967  3608  9168    0
 1907   14660 16434 11400 17227    0
 1908    5839 12694 10115 13632    0
 1909   10126 13640 10157 16087    0
 1910    4430  4489  1579  7218    0
 1911    1101  1890   639  5151    0
 1912   11311 11358  7833 14623    0
 1913    2966  4926  2987  7787    0
 1914    2879  2880  1016  4781    0
 1915    1047  7782  4896 11151    0
 1916    1721   346 11151 11149    0
 1917    1418  6540   159  9961    0
 1918    1787  2964  2962  4893    0
 1919    1001  1719  1002  1721    0
 1920     723   724    74  1252    0
 1921    4766  7681  2670 11147    0
 1922    1661  2797    12  4641    0
 1923    2993 11353  4943 14624    0
 1924    1722  1723   188  2892    0
 1925       6   587   586  1005    0
 1926    4971 10705  2257 14655    0
 1927     585  1723   587  1724    0
 1928     539  2879  1742  2889    0
 1929     190  1009    58  1010    0
 1930    1737  4767  2890  4768    0
 1931     335  1007   589  1723    0
 1932    2972 10760  7184 14273    0
 1933    4392 10729   598 10744    0
 1934    2888  4779  4778  4780    0
 1935    2883  4787  4769  7618    0
 1936    1051  2974  1793  2981    0
 1937    4775  7611  2887  7614    0
 1938     643 11710  8142 13794    0
 1939    3100  8111  5143  8594    0
 1940    7786 11307  4899 11319    0
 1941    7616  7691  2883 11152    0
 1942    7648 14604 11192 14612    0
 1943    7953 11506  5033 16616    0
 1944    4569  7358  1624 10817    0
 1945    1007  1725   336  1740    0
 1946    2707  4474  2705  7256    0
 1947    1797  2983   197  4920    0
 1948     187   589   335  1017    0
 1949    5027 11483  8788 12421    0
 1950    4626 14409 14405 15499    0
 1951     582  1736  1728  4764    0
 1952     336  1014  1009  1740    0
 1953    5829 12658  3525 12659    0
 1954     594  7689  5003 11213    0
 1955    7134 10729  2655 10731    0
 1956    1773  4868  4867  7673    0
 1957    2930  5559  5045 11937    0
 1958   12953 15725  9484 15770    0
 1959    4840 11234  2944 11246    0
 1960    2935  8112  3371  8119    0
 1961    4845  7161  2055  7715    0
 1962    4822  4824  1023  7675    0
 1963    2917  7686  7171 11265    0
 1964    3014  7817  4979 14669    0
 1965    5658  8821  8811 12450    0
 1966     920  2658  1569  7143    0
 1967    1080  3076  3075  5106    0
 1968     681  1870   206  2010    0
 1969    1788  7634  4795 11163    0
 1970    5149  8119  3371 11687    0
 1971    5274  5276   121 11864    0
 1972    1992 11733  5456 12220    0
 1973    1350  6532  3998  6534    0
 1974    4874 13526 10004 13527    0
 1975    4423  4767  1737  4768    0
 1976    4902  7834  1061 11309    0
 1977    4485  7263  7262 14323    0
 1978    8017 12350 12317 15361    0
 1979    4410 10746  7170 10747    0
 1980     607  2961  1785  2962    0
 1981    1742  2894  1018  2896    0
 1982    1015  1738   592  2887    0
 1983    2770  7379  4621 10928    0
 1984    1012  1730  1729  2884    0
 1985     590  1012    58  2886    0
 1986    8514  8814  5409 15130    0
 1987   11577 15372 12349 16779    0
 1988    1790  7780  4794 11301    0
 1989    1015  1731   592  1738    0
 1990    3049  8005  5062 14550    0
 1991    2891  4890  4782  7611    0
 1992    1801  4916 11320  4917    0
 1993    8612 11912  5246 15034    0
 1994    1742  2680  1018  2894    0
 1995    9712 11650  3897 13250    0
 1996     113  2975  1051  4911    0
 1997    2980  4921  4920 14595    0
 1998    2970  4907  4789 11159    0
 1999    4696 14438 11042 15474    0
 2000    4805  7656  7654 11328    0
 2001    9345 12901  9347 15689    0
 2002    2541  4165   878 10161    0
 2003    7906 11449  1838 14689    0
 2004    4789 11167  1789 11360    0
 2005     777 13012  6172 15752    0
 2006    1805 11280  4884 11332    0
 2007    6267 13114  2309 15807    0
 2008    9298 15691 11371 17021    0
 2009   12914 12919  6075 15693    0
 2010    7152  7232  4402 14306    0
 2011    1858  3078   360  3083    0
 2012    6863 13493 10340 17158    0
 2013     186  4767  4423  7610    0
 2014   12906 14822  1072 14823    0
 2015    5020  7636  1826  7934    0
 2016    1773  7732  7710  7733    0
 2017    1117  3142  1910  5189    0
 2018    8717 14832 12313 15335    0
 2019    7840 11365  2996 14590    0
 2020     636  3096  2011  5129    0
 2021   11989 16045 15102 17102    0
 2022    8182 11765  3153 12445    0
 2023    3531 11120  7574 16384    0
 2024   10672 14203  7085 14215    0
 2025   12674 13981  9068 15553    0
 2026    7945 11549  3038 14772    0
 2027    7832 11349 11342 11356    0
 2028    3347 11464  7923 12269    0
 2029    3434  8856  1212 12458    0
 2030   13233 13295  5084 15912    0
 2031    3342  5138   685  5527    0
 2032   11529 14708  7941 14753    0
 2033    7911 11201  1748 11202    0
 2034    7097 10685   915 10790    0
 2035    1770  4868  2939 11156    0
 2036     662  5484  5470  8606    0
 2037    1867  3098  1087  5131    0
 2038    3711  9363  8748 12365    0
 2039     812  6466  3963 13473    0
 2040    2073  5636  3414  8795    0
 2041    4193  6784   886  6786    0
 2042    4876  4884  1058  7749    0
 2043    4029  6570  2449  9958    0
 2044    4766  7610   186 11147    0
 2045     452  6246  6153  9563    0
 2046    1649  7394  2778 10950    0
 2047    7649  7830  1811 11351    0
 2048    1944  3191  1140  5277    0
 2049    3962  6482  2404  6487    0
 2050    9054 10430  5807 12642    0
 2051     243  2182  2181  5909    0
 2052    8460 16832 12085 17332    0
 2053    5586  5593   618  8707    0
 2054    1776  6216  1777  9537    0
 2055     605  4426  4424  7182    0
 2056    4368 10665  7087 10670    0
 2057    7557  7558  1556 11100    0
 2058    9699  9971  5094 13507    0
 2059    5918  9418  9148 12978    0
 2060    3279  5110  1862  5446    0
 2061    3538  5871  3553  9110    0
 2062    5906  9325  9140 12881    0
 2063    9309 14001 12828 15643    0
 2064    3378 11904  8685 14758    0
 2065    5759  9077  8947  9265    0
 2066    4887  4889  1790  7772    0
 2067     859  1465   501  1468    0
 2068    3143  5197  1170  5280    0
 2069     789  2333  1365  3852    0
 2070   10489 11988  6969 13608    0
 2071   10263 13757 10292 13784    0
 2072    2422  3967  1411  6524    0
 2073    1810 13036 12953 16594    0
 2074     273   831   481  2433    0
 2075     281  1442  1441  2466    0
 2076    4791  7630  7624 11168    0
 2077    5401  8500  5388 12124    0
 2078   11725 11726  1899 14914    0
 2079   14818 14823  8032 16278    0
 2080    6726  6727  4154 10162    0
 2081    7219  7228  4431 10767    0
 2082    4127  6685  2538 10116    0
 2083     353  4997  3049  7906    0
 2084   13358 14998  9791 14999    0
 2085     460  1374  1372  3855    0
 2086    9479 13000  3762 13040    0
 2087    3726  9138  6126  9420    0
 2088     259  2423   810  3990    0
 2089   12422 12430  8790 15416    0
 2090     631  1085   210  1862    0
 2091    3313  8169  5286  8607    0
 2092     209  3082  1871  5127    0
 2093     382  3310  2000  5197    0
 2094   11807 11878  8245 11908    0
 2095    1119  5190  3319  8178    0
 2096    2000  3310   382  5474    0
 2097     627  1865    64  1866    0
 2098    5122  5123  5121  8095    0
 2099     207  2007  1171  3087    0
 2100    8494 11493  3256 11909    0
 2101    3388  8702  5587 12302    0
 2102    5111  8535  8083  8692    0
 2103    7926  7928  5017 11472    0
 2104    4248 10030  6882 13548    0
 2105    2006  3316  2005  3317    0
 2106     631  1862  1861  3083    0
 2107    1099  5534  3364 12272    0
 2108   10136 13643  4279 16113    0
 2109     177 10813  4482 14322    0
 2110     309  2698  1589  4447    0
 2111    3409  5631  5630 12426    0
 2112    1945  5186  3199  5423    0
 2113    1867  3090   633  3098    0
 2114     216  3199  1945  5186    0
 2115    1857  1861   630  3083    0
 2116   13109 13110  6426 15979    0
 2117    1164  3321  2042  5494    0
 2118    1606  7316  7284 10857    0
 2119    3996  9955  6527 15828    0
 2120    1184  5504  2018  5505    0
 2121    5016  5018  3033  7928    0
 2122    1081  5108  1853  5109    0
 2123    6993 12810  4310 12811    0
 2124    6376  9740  3902 13222    0
 2125     221  8287  2031  8632    0
 2126    3454 12097  8476 15214    0
 2127    9861 13433  6474 13467    0
 2128   13781 16170  8379 17149    0
 2129   13166 13197 13196 13426    0
 2130    1381  9676  3873 13212    0
 2131    6690 10127  4135 10153    0
 2132    1470  6604  6603 10061    0
 2133    8069  8072  3280  8080    0
 2134    8472  8473  5697  8866    0
 2135   10452 14064 13942 14797    0
 2136    2430  2433   481  4001    0
 2137     375  1120   650  5205    0
 2138    1551 14110 13716 16365    0
 2139    2611 10042 10041 13561    0
 2140    4475  7273  2706 10771    0
 2141    6019 12805  9245 15622    0
 2142   14060 14061 10544 16328    0
 2143    8513 16724 12150 16725    0
 2144    1883  1886   638  3364    0
 2145    3651  8996   711 12612    0
 2146    7083 14178 11072 16400    0
 2147    1579  1580    11  2693    0
 2148    5699  5700  3155  8869    0
 2149    1120   648  1121  3151    0
 2150    2781   559  4648  7450    0
 2151    8269 11828  8263 11839    0
 2152    4615  8183  4616  8184    0
 2153    2850 11084  4723 11086    0
 2154    1856  3075  1855  3076    0
 2155   13409 16642 15988 17424    0
 2156      67  2096  1215  3452    0
 2157    2779  8862  5691  8863    0
 2158     362   634   210  1090    0
 2159    3152  5120  3096  5206    0
 2160      34  1113   373  1114    0
 2161    4180 12385  7037 13710    0
 2162    5143 11680  8111 14884    0
 2163    3918  9812  9794 13360    0
 2164   10700 14239  7104 14473    0
 2165    3565  9131   731 15578    0
 2166    5997  9225  3652 12617    0
 2167    6907 10402  2196 16213    0
 2168    6039 12329  9296 12333    0
 2169    2205  3636  1296  5977    0
 2170   10672 11347  4361 14616    0
 2171    5550  8663  5052  8664    0
 2172    5100  8070  5106  8077    0
 2173    5242  8822  8248 15434    0
 2174    1113  1114    34  3135    0
 2175    8283 11862  8144 14908    0
 2176    7449 11014 10946 11015    0
 2177    1187  3368  3361  5542    0
 2178    4409  7610  2670 11147    0
 2179     415  9270  3675  9304    0
 2180    3384  8545  2013 12193    0
 2181      36  1083  1082  1861    0
 2182     223  3146  2035  5118    0
 2183    5129  5130  3096  8099    0
 2184    1184  3351  2018  5141    0
 2185    1036  7619  4867 11156    0
 2186   11481 14700 10530 14701    0
 2187     158   824   484  4003    0
 2188    9854 15110  2570 15998    0
 2189    2455  4020   834  4045    0
 2190    1132  1932    13  3175    0
 2191    1869    63  3091  5123    0
 2192    1858  1861  1857  3083    0
 2193    8516 13816  8410 15140    0
 2194    3728  6133  6132  9405    0
 2195    3200  8297  5293 11870    0
 2196    6362 13019  9691 13020    0
 2197    4098 10077 10073 13584    0
 2198    1992 12045 11734 14915    0
 2199    2309  6267  3816  6269    0
 2200   11238 14560 11224 14561    0
 2201    9596 15813  1106 15826    0
 2202    3048 11551  7996 12261    0
 2203    4851 11229  1759 11230    0
 2204    7079  7114   692 14184    0
 2205    6887 10372 10371 13566    0
 2206    1572  7178  7175 14275    0
 2207     550  2708  2707  4478    0
 2208    5227  8213   704  8214    0
 2209    7514 12591  4704 14452    0
 2210     443  9181  5948  9227    0
 2211    5668 12464  8832 12465    0
 2212    3334  5557  2020  7984    0
 2213    2052 12193  8086 15277    0
 2214      98  7125  4457  7235    0
 2215    1501  6779  4189  7046    0
 2216    1675  4662  2810  7476    0
 2217    5773 10522  3497 14024    0
 2218     180  1635   562  4588    0
 2219    5012  7920  7918 11457    0
 2220    8601 12033  5468 15151    0
 2221    3443  8848  8846  8853    0
 2222    4228  4230  1407  6517    0
 2223    5639  5643  3419 12481    0
 2224    4562  4563   405  7354    0
 2225    6499  6501  6493 13482    0
 2226     856   857   290  2511    0
 2227    2368  9706  9694 13255    0
 2228      25 13301  9759 15917    0
 2229     391  2012  1912  5191    0
 2230     531 12643 10094 13591    0
 2231     513  4162  4159 10173    0
 2232   12123 12498  8867 15454    0
 2233    2572  9875  6821 10269    0
 2234     515  2542  2541  6678    0
 2235    4124  6641  1443 10171    0
 2236    2519 10144  4117 10146    0
 2237    3611  6904   410 10395    0
 2238    2815  3479  1696  5739    0
 2239     510  2501  2500  4094    0
 2240   10425 13903  4275 13909    0
 2241    9031 12636  2128 12646    0
 2242   16107 16109 10130 17206    0
 2243    4281 10398  6935 13655    0
 2244    7516 11059 11057 14455    0
 2245    8275 15001 11850 15002    0
 2246    1983  8591  5462  8652    0
 2247    1022  7667  7666  7730    0
 2248    5177  8142  1899  8150    0
 2249    3167  8247  5261  8260    0
 2250    2093  8832  5656 12487    0
 2251    3030  7929  1069  7931    0
 2252    5418 16851 15267 17336    0
 2253    1649  5305  5304 10950    0
 2254    4684  4686  2826  7493    0
 2255     674  3363  2042 11672    0
 2256    2008  3324   674  8093    0
 2257    3338  8627  5514  8629    0
 2258   11628 15731  6362 15885    0
 2259     360  1085   631  1862    0
 2260    3076  5105   378  5249    0
 2261    8081  8082  3145 11662    0
 2262    5144  8113  1096 11686    0
 2263    6216  9533  3784 13076    0
 2264    1100  3110  1888  5148    0
 2265    6655 13563  2515 13621    0
 2266    3244 14728 10278 15178    0
 2267    1727  1730   591  2884    0
 2268    3111  5149  1030 11681    0
 2269    1119  3140  1912  5191    0
 2270    3095  5140  1165  5142    0
 2271    5461  8580   671  8588    0
 2272    2009  5119   674  8093    0
 2273    1133  5252  5251  5262    0
 2274    8657 12276  1190 12277    0
 2275    3311  5280  3191  5484    0
 2276    5201  5581  3139 12274    0
 2277    5182  8155  3134  8161    0
 2278    8808  8809  5659  8824    0
 2279   11790  3163  5234 14390    0
 2280    4847  8621  7978 12252    0
 2281    3349  3351  3325  8179    0
 2282    1836 11544  5050 16638    0
 2283    1868    63  3091  1869    0
 2284    3109  5146  1885  5147    0
 2285    1869  2010   679  5132    0
 2286    1030  3112  1893  7726    0
 2287    1100  1103   342  1894    0
 2288    1932 11659 11658 14876    0
 2289    7927  7930  5019  7932    0
 2290    1105  5459  3290 11691    0
 2291    5622 12389 10658 14765    0
 2292    6428 11615 11614 13393    0
 2293    1141  5422  5186  5423    0
 2294    5318 11803  1130 12147    0
 2295    5698 11763  8199 11766    0
 2296     646  3194  1942  8157    0
 2297    5175 11718  8283 14887    0
 2298    5190  8162  1913  8608    0
 2299   11587 13049  4298 15779    0
 2300    3672 12825  6032 14004    0
 2301   12135 15236 12143 15238    0
 2302    1997  5425  1168  8538    0
 2303   11893 12494 11749 15012    0
 2304    5559  7970  2933 12284    0
 2305     337  1729  1012  4765    0
 2306    5183  5273  3123  8285    0
 2307    1092  1990   388  5130    0
 2308    7846  9692  1338 13225    0
 2309    3057 15098 11984 16266    0
 2310    1881  1886  1097  3108    0
 2311    2032  2033    62  5505    0
 2312    5485  8605  3309  8631    0
 2313    3373 11464 11462 14692    0
 2314    1164  1189   390  2042    0
 2315    2944  7732  7673 11235    0
 2316    3342  5517  1181  5518    0
 2317     392  8107  3352  8108    0
 2318    6601 10009   899 10011    0
 2319    3337  8624  2022  8625    0
 2320    3406 11923 10919 15044    0
 2321    1767  4856  2935  5152    0
 2322    9726  9646 17051   798    0
 2323      59  2928  1758  4835    0
 2324     119  3103  3102  5146    0
 2325    5559 11532  7970 14755    0
 2326     681  3326  2010  5498    0
 2327    1877  8105  5137  8111    0
 2328     115  3316  2006  3317    0
 2329    3095  3105   637  5140    0
 2330   13669  6730 13674 10359    0
 2331    5316  8255  1147  8332    0
 2332    4770  4772   338  4813    0
 2333    5528  5529  3300 15318    0
 2334     931  4394  1567  4395    0
 2335    4389  4831    59 12311    0
 2336    2749  7332   553 10814    0
 2337    2833  7500  4692 10837    0
 2338     918  1575  1562  4399    0
 2339    2718 10653  7270 10842    0
 2340    2661  4400  4396  7150    0
 2341     109  7709  5507 12284    0
 2342    9572  9953  9601 15806    0
 2343    8132 13109  9578 13110    0
 2344    2454  4020  1431  4040    0
 2345    8639 12260  5523 16733    0
 2346    6851 13807 10280 16182    0
 2347    8852 14921   700 16917    0
 2348    1153  8481  4335 10599    0
 2349     555  4567  2748  7460    0
 2350   12714 12748 12562 12779    0
 2351    2114 12560  8939 15476    0
 2352   10645 14165  2643 14615    0
 2353     380  5670  5650  8809    0
 2354    5261  8247  3167  8261    0
 2355    3371  5562  5556  8676    0
 2356    1573  4419  4417 10735    0
 2357    1609  7205  2834  7289    0
 2358    2461 13518 10002 15798    0
 2359    3677 11584  9278 12831    0
 2360     453 13042  9496 15514    0
 2361    7396  7398  2804 14424    0
 2362    3520 10419  1239 10420    0
 2363    5829  9072  9071 12676    0
 2364     778  5784  3769  5997    0
 2365   13359 14579  4954 17018    0
 2366     667 12121  8330 15057    0
 2367    8362 11941  5300 11943    0
 2368    3509 12871  5991 15668    0
 2369    2547 10188 10187 13689    0
 2370    9434 12985  3737 13001    0
 2371    3588  3589  2184  5847    0
 2372   13387 15973  1967 16829    0
 2373    6146  9441  1330 12951    0
 2374    1928  1929  1131  3174    0
 2375    2792  4628  1657  7370    0
 2376    7329 10888  4546 10889    0
 2377     949  7322  2744  7323    0
 2378     546  2663  1587  7141    0
 2379    2132 12668 12661 16940    0
 2380    4735 11098  8883 14472    0
 2381    2866  5719  3467  8887    0
 2382    4649  7453   560 11016    0
 2383    4571  7534  1629 14316    0
 2384   10458 16942 15530 16946    0
 2385    7548  7549  4725 11083    0
 2386    7716 11261  4847 14567    0
 2387    3557  5878  2155  5879    0
 2388   15061 15063 11956 16756    0
 2389    4192  4194  2557  6791    0
 2390    7595 14495   579 14502    0
 2391   11620 13430  6451 16673    0
 2392    7306  7373  1626 10891    0
 2393    8339  8344  5030 11910    0
 2394    4701  7248  2837 16479    0
 2395    8832 12464  8831 12465    0
 2396     958  4552   557  7339    0
 2397    2859  4751     9  4752    0
 2398    8881  8891    49 12504    0
 2399    2921  7675  2914  7676    0
 2400    8353 15030 15015 16742    0
 2401    3533  5845  2138  5891    0
 2402    3528 13629 10134 17125    0
 2403    4803  7830  7661 14539    0
 2404    1236  5791  3506  9001    0
 2405    2813  4664  1610  4666    0
 2406    6041 11607  8038 16884    0
 2407    8014 11571  8015 14222    0
 2408    7029  7031  4330 12383    0
 2409    7428 14405 10996 15016    0
 2410    1681  7471  4665 10868    0
 2411     932  7219  4456  7234    0
 2412     515 10161  2541 13666    0
 2413    7316 10857  4528 14331    0
 2414    4740  5950  2860 12771    0
 2415   11276 11289  7755 14574    0
 2416    7019  7038  1549 10572    0
 2417    2823  7464  2812  7465    0
 2418    1685  2831   569  4524    0
 2419    1351  6267  6265 13111    0
 2420    1760  7135  4392  7136    0
 2421     488  3069  1848  4057    0
 2422     411  3558  3556  3569    0
 2423    3579  3580  2176  3600    0
 2424     864  4091  2502  4094    0
 2425    6571  6580   156  9991    0
 2426    2680  7164  4429  7187    0
 2427    5452 12222 12208 15285    0
 2428    2122  5903  5789  8998    0
 2429     139  5878   734  5893    0
 2430    4108  6668  2508 10070    0
 2431    3759  9765  6392 13319    0
 2432     436  9064  5919  9152    0
 2433     112  7825  1819 14601    0
 2434    3144  5424  3267  8583    0
 2435    1374  2344   793  3860    0
 2436    2189  2244  1279  3693    0
 2437    4979  7817  1819 14669    0
 2438    6147  9544  2294 13088    0
 2439     433  2180  1279  3576    0
 2440    3652  8923  5996  8996    0
 2441    9002  9003  1237  9500    0
 2442     810  2423  1411  3990    0
 2443    6829 13808 10322 16183    0
 2444    2730  4516  4514  7299    0
 2445    4194  6789  2547 13689    0
 2446    9015 13907   714 13908    0
 2447    2728  7291  5733  8906    0
 2448    4162 10173   513 13676    0
 2449    7381 10932  2842 10975    0
 2450    2200  5844  3615  5941    0
 2451    2278  9763  9467 13314    0
 2452    2696  7232  4455 10801    0
 2453    2188  5920  3597  5921    0
 2454    2185  3596  1289  5921    0
 2455    1571  7236  7063 10807    0
 2456    7536  7537  1695 11077    0
 2457    1133  5258  3175 11659    0
 2458    4174 10188  6789 13689    0
 2459    1335  2272  1334  3747    0
 2460    3959 10259  6812 13753    0
 2461   14449 14451 11053 16989    0
 2462    4370 15643  9309 16438    0
 2463    4245  6875  6706 13530    0
 2464    3997  6284  3829  6531    0
 2465    1280  3581  2184  5887    0
 2466    3666 14383  7515 16492    0
 2467    5595  8716  1074 11178    0
 2468    8062  9712  3897 11651    0
 2469     737  3695  3579  6066    0
 2470    1228  3494  2117  5766    0
 2471    9219 12619  2224 12791    0
 2472    3534  3584  2139  5912    0
 2473     136   429   427  1269    0
 2474    3583  9177  5909 12788    0
 2475    3513  9057  5804  9119    0
 2476    2643 15663 14185 16998    0
 2477    1268  2167   432  3570    0
 2478    3661 12553  1309 12790    0
 2479     252  2213  1301  3627    0
 2480    1253  1270   134  2167    0
 2481     427   736   240  1266    0
 2482    3616  5941  1291  5944    0
 2483     421   727    72   733    0
 2484      72   423   422   733    0
 2485     422   421    72   733    0
 2486    2148 12703  3545 12707    0
 2487   10462 10463  2604 13049    0
 2488    1257  5854  5848  9093    0
 2489    2701  7325   549 10813    0
 2490   13293 15909  8383 15910    0
 2491     734  1268   241  2169    0
 2492    3619  5954  5952  9187    0
 2493    5922  9154  3593 12736    0
 2494     527  4271  4270  4272    0
 2495     324  4680  2821  7491    0
 2496   11071 17249 16405 17440    0
 2497    3657  6005  2226  9233    0
 2498   12631 12753  9168 15531    0
 2499    2619 12819  9261 17439    0
 2500    9060 15929 15521 16943    0
 2501    2140  3568  1248  3587    0
 2502    3636  9207  5978  9208    0
 2503    1263  3569  3556  5894    0
 2504    7002 14059 10543 16240    0
 2505      74  1251   723  1252    0
 2506    1503  6740  1502 10176    0
 2507     134   417   236  1270    0
 2508     736  1270  1268  2168    0
 2509     417   724    74  2142    0
 2510     432   736   734  2165    0
 2511     741  5922  3593 12736    0
 2512    3608  9169  9168 15531    0
 2513    9142 12729  6206 15584    0
 2514     236   429   428  2168    0
 2515      72   725   423   733    0
 2516      72   727   725   733    0
 2517     418   736   429  1270    0
 2518     240  2165   736  3572    0
 2519    1254   748  1294  2144    0
 2520    1318  2244  1274  3579    0
 2521    2142  3572   723  5892    0
 2522    5988  8997  5789 12789    0
 2523   11852 14676  8270 14775    0
 2524    6034 15642  9304 16433    0
 2525    6673 10411  2595 15538    0
 2526    8493  8738  5404 15356    0
 2527   10106 10108  4137 13627    0
 2528     419  3587  1248  5892    0
 2529    2199  3639  3533  5845    0
 2530    2211  5976  3636  9207    0
 2531     736  1266   427  2169    0
 2532     821  2434   822  2435    0
 2533    3182 11852 11553 14676    0
 2534     417   418   137  1270    0
 2535     239   236   137  1270    0
 2536   13129 15815  3824 15823    0
 2537    2188  5901   743  5915    0
 2538     425  3551  1260  5868    0
 2539     441  3622  1302  3627    0
 2540     426  1266   734  2169    0
 2541     136   427    73  1269    0
 2542    1279  2180  2179  3576    0
 2543     428   429   136  1269    0
 2544     427  1266   426  1269    0
 2545    2215  3558   751  3637    0
 2546    1249  1250   722  1251    0
 2547    5756  6035   759  9277    0
 2548     724  2141  1253  2142    0
 2549    3727  6067  2263  6070    0
 2550    9328 12980 12976 15671    0
 2551    2151  9027  9021  9104    0
 2552    9179 12767  2214 12768    0
 2553     779  9453  6158 15617    0
 2554   12741 15524  9017 15545    0
 2555    3917  9800  9792 17074    0
 2556    1277  1279   434  3580    0
 2557    2375 13024  9468 13334    0
 2558     755  2220  2200  3616    0
 2559    2182  3581  1280  5909    0
 2560   10591 10609  4348 14392    0
 2561    6725  6729  2544 10162    0
 2562    5514  8634  8627 12258    0
 2563    7647 14538 12297 15324    0
 2564    2155  5878   751  5879    0
 2565   12678 15557  5938 15603    0
 2566    3610 12776  9193 16954    0
 2567    1265  3532  2162  3570    0
 2568    3505  8991  5787  8992    0
 2569    3639  9183  1291  9227    0
 2570    2613 11986 10454 16250    0
 2571   14812 14849 10486 16677    0
 2572    9141 12727  1272 15586    0
 2573   12702 12706  9106 12708    0
 2574    2206  3624   750  5974    0
 2575    1711 11134  7592 14503    0
 2576    5916  9145  5820 12728    0
 2577    7097 10790 10680 12814    0
 2578    1714  4748   994  5959    0
 2579     749  5955  1293  9091    0
 2580     411  3558  2215  9121    0
 2581    4633  7421  2790  7422    0
 2582     921  4417  2675  4419    0
 2583    1267  2210   139  5878    0
 2584    3562  3645  1281  5884    0
 2585    5923 12741  3604 12742    0
 2586    2162  5845  3532  9091    0
 2587    1109  8123  3124 11693    0
 2588    3965 13750  9916 17143    0
 2589   11322 14585  7814 16561    0
 2590     454  9541  6219  9542    0
 2591     243  2178  1278  2182    0
 2592   11991 15105 11971 16772    0
 2593     425  3571  2152  5867    0
 2594    3591  3604  1290  3614    0
 2595    2215  3638  3637  5843    0
 2596     573  4701  4700  7511    0
 2597     134  1270  1268  2167    0
 2598   11574 14800 14793 15196    0
 2599    1276  5905  2176  9209    0
 2600    1015  1732   334  1738    0
 2601     731  9131  5876 15578    0
 2602     427   732    73  1266    0
 2603     426   427    73  1266    0
 2604     736  1253   432  1268    0
 2605     432  1268  1253  2167    0
 2606     902  9097  6900 12702    0
 2607      77  1318  1277  3579    0
 2608    1579  2693    11  2694    0
 2609    1304  3645  2216  9063    0
 2610     752  2203  1301  3627    0
 2611     589  2893  1743  7604    0
 2612      71  3534  3533  5844    0
 2613    5786  5793  3502  8989    0
 2614    1431  4020  2455  4045    0
 2615    2771  4590  1639 10896    0
 2616    2705  2707   176  4474    0
 2617    4535 10816  7320 10881    0
 2618    4568  7362  1624 16460    0
 2619   11079 14468  7295 14469    0
 2620      21  5171  5169 14888    0
 2621    5879  5968  2156  9121    0
 2622   11137 12555  8936 16532    0
 2623    3194  5167  1904 11863    0
 2624    2709  7258  7213 10787    0
 2625    6246  6252  3732 15749    0
 2626    1073 11979 10468 15100    0
 2627   12794 12795  5998 16518    0
 2628    1307  5987  3616  6000    0
 2629    1484  6719   527  6919    0
 2630    4696 14440 12531 15475    0
 2631    6989 14016 10516 14017    0
 2632    7869 11408   615 16572    0
 2633    3805  6553   782 13103    0
 2634    1997  5192  3141  8167    0
 2635     832  4010  2442  4013    0
 2636    3805  6249  2301  9401    0
 2637    6869 10348  2612 10497    0
 2638     840  5098  1441  9987    0
 2639    2849 10931  4721 11041    0
 2640    3986  6282  4228 10286    0
 2641    2835  9076  5832 12532    0
 2642   12672 15761  5827 15762    0
 2643    6030  9263  3671  9266    0
 2644    5265  9834  8266 13405    0
 2645    5911  9129  2201  9213    0
 2646    6031  6032  3674  9271    0
 2647    1710  7486  2868  8887    0
 2648    2075  2076   398  5647    0
 2649    1212  5683  3434 12458    0
 2650    6295 13155  9620 15852    0
 2651   12797 15605  9174 16983    0
 2652    2910  7664  5003  7689    0
 2653     819   826   274  2428    0
 2654    2308  6263  3813  6264    0
 2655    4883  4930   350 11417    0
 2656    4799 14526 14525 16543    0
 2657    4012  6565  1426  9963    0
 2658    8182  8855  5208 12445    0
 2659    6968  9890  1404 13457    0
 2660    3675  6034   415  9304    0
 2661    8988 10905  2762 14349    0
 2662    2698  4448   932  4462    0
 2663    4376  7103  3001  7105    0
 2664    5063 11561  3051 14691    0
 2665   10962 14364  7444 14421    0
 2666    9460 13976 10479 13977    0
 2667    4840  7710   342 11245    0
 2668   12842 14003  3682 14235    0
 2669    5558  8673  3370 12285    0
 2670    5757  8941   444  9320    0
 2671     734  2166   139  5893    0
 2672     144  2244   760  3692    0
 2673     950  7323  2744 14314    0
 2674    9429  9427 15747 12992    0
 2675    6610 10038  2476 13546    0
 2676     234  6109  3761  6110    0
 2677    2980  4919  4900 14595    0
 2678    4375  7566  7559  9219    0
 2679    5013  5568  2029 11557    0
 2680    4434 14280  7212 14328    0
 2681    3001  3002   716  4956    0
 2682    9284 12837  9286 12839    0
 2683    9797 14645  4872 16590    0
 2684    9592 13122  3827 16176    0
 2685    2237 15653  9294 15656    0
 2686     432  2163  2138  3558    0
 2687   11644 15882  6365 17063    0
 2688     833  4020  2454  4040    0
 2689     791  2336   792  3854    0
 2690    3752  6157  2273  9452    0
 2691     302 10336 10334 14105    0
 2692    2012  5191   391  8165    0
 2693     707 11142 11140 12577    0
 2694    4886  7767  1782  7768    0
 2695    5612 15378  8748 15387    0
 2696    7570 11110  4742 11135    0
 2697    9315  9320  6062  9322    0
 2698    4046  6590  1345 10001    0
 2699    5769 12582  8964 12584    0
 2700    2282  6152  3764  9491    0
 2701    8995 12610  3505 13056    0
 2702    1421  2433  2430  4001    0
 2703    1559  7124  4386 14173    0
 2704     790  1374   460  2343    0
 2705    5759  8937  3486  8940    0
 2706    3660  6010  2228  6011    0
 2707    1751 11221  4993 14597    0
 2708    4016  4017  2445  4022    0
 2709     451  9444  6148 15733    0
 2710    9148  9460  1337 10479    0
 2711    8840 12468  3200 15009    0
 2712    8923 12542 11095 15518    0
 2713    2281  6177  3768  6186    0
 2714      19  7857  7103 14240    0
 2715    2990  7820  4931 11331    0
 2716   12687 16107 13647 16962    0
 2717    7670  7731  4821 11212    0
 2718    2257  7860  3719  9494    0
 2719    2305  3809  1348  6553    0
 2720     470  9626  6300 15807    0
 2721    9296 15660  6044 15916    0
 2722     409  9000  5899  9210    0
 2723    2451  4039  2456  6579    0
 2724    2302  6569  4027  9561    0
 2725    4055  6597  2465  6598    0
 2726    7916 11447   620 11454    0
 2727    1992 15288 12045 16697    0
 2728   14540 14604  4355 14612    0
 2729    9462  9766  6163  9767    0
 2730     373  1111  1112  1905    0
 2731    6587 11646  4047 15792    0
 2732    9461 13506  9401 16026    0
 2733    6159 15753 15752 17021    0
 2734   11850 15000  5270 15001    0
 2735    5992  9218  3509  9220    0
 2736    6929 16226 10427 16229    0
 2737    1186  8169   649 11739    0
 2738    4229 10317  6850 15830    0
 2739    1401  9667  6324 15870    0
 2740    1370  2338  1377  2339    0
 2741    9469  9758  2375 13024    0
 2742    1887  2032   682  5141    0
 2743     677  3305  2000  5197    0
 2744    8947 11097  5753 12569    0
 2745    2427  6539   273  9960    0
 2746     764  6129  3752  6157    0
 2747    9667 13207  3870 15870    0
 2748     297  6813  6455  9877    0
 2749     790  2343  1369  3854    0
 2750    7755 16031 11388 16590    0
 2751    6462  9884  9667 15870    0
 2752    1512  2567   890  4206    0
 2753    8512 15149  8514 15242    0
 2754     801  6963 13027 15763    0
 2755    5081  9652  3060 15118    0
 2756     494 10375  6886 13669    0
 2757    3997  6528  6284 13140    0
 2758     790   792   455  3854    0
 2759   11997 11998  8401 11999    0
 2760     634  1090   362  1869    0
 2761   11346 11348  7829 14610    0
 2762    4961 16591 14650 16592    0
 2763    1397 13441  9867 13446    0
 2764    3828  3986  1519  6282    0
 2765    9891 16009  6466 17087    0
 2766     471  3984  1412  9678    0
 2767    9837  9839  6433 13155    0
 2768    2337  3992   259  9884    0
 2769   11998 15107  8397 15115    0
 2770    9729 13186  6346 15860    0
 2771     160   828   824  1425    0
 2772    6463  9645  6311  9886    0
 2773    6449  9870  3946 13447    0
 2774    6349 13224  9974 15877    0
 2775     839  2465  1850  4054    0
 2776    6114  9401  6113 12967    0
 2777    6864 13532  2467 16037    0
 2778   10330 12083  6860 16135    0
 2779     512  4114  4108  6676    0
 2780     208  1914  1091  3152    0
 2781    3775 12855  6199 15645    0
 2782    4977 13074  7881 13089    0
 2783    2603 12638 10458 17360    0
 2784    8401  8402  5350 14815    0
 2785    2011  2012  1912  5124    0
 2786     860  2525  1478  4126    0
 2787    4879  9426   350 12986    0
 2788    1099  3106  1886  5147    0
 2789    2459  4020  1431  4045    0
 2790     793  2344  1374  3854    0
 2791    1441  1442   840  9987    0
 2792     783  9628  6283 13112    0
 2793    9826 11615  9849 15982    0
 2794    2460 13521 13519 14868    0
 2795    6300 13159  9625 13163    0
 2796     265  2354  1413  3879    0
 2797     531 10094 10083 13591    0
 2798    6657 16056 10079 16086    0
 2799    1090  1872   391  3081    0
 2800    5090  8056   162  8057    0
 2801    6377  9688  3884 17050    0
 2802    8131 14891  5160 15006    0
 2803    2373  6391  6388  9764    0
 2804     775  3998  3744  6154    0
 2805     297  4212  2561  4303    0
 2806   12013 15131  8417 15132    0
 2807   10663 14198  7080 16410    0
 2808    1183  5284  2031  8287    0
 2809    5001  7909  4999 11435    0
 2810    2349  9664  3865 13206    0
 2811    9465  9738  6165 13018    0
 2812   10329 12053  6859 13812    0
 2813    4425 11242 11170 14543    0
 2814    2554 10192  6748 10353    0
 2815     926  4449  2695  7220    0
 2816     280  1423   824  4003    0
 2817     283  2507  2481  4076    0
 2818    6719  6720  2594 10413    0
 2819    7016 14089  2098 16124    0
 2820    4905  7179  1718  7792    0
 2821    7037 10599  1153 14122    0
 2822    1373  2334  2333  3855    0
 2823   11180 14527 11186 14534    0
 2824    6665 13595 10083 13830    0
 2825    3963  9912  9909 13473    0
 2826     744  9158  5923 12742    0
 2827    2297 13077  3793 13080    0
 2828    1373  3852  2334  3855    0
 2829     535 10182  2633 16123    0
 2830     459  2336   791  3854    0
 2831    8166 12200  3294 12233    0
 2832    1941  5277  1140  5286    0
 2833    6847 10316  2578 13805    0
 2834     838  2464   486  9721    0
 2835    1431  4020  2459  4040    0
 2836    6310 15856 15854 17043    0
 2837    4068  6867  6865 10344    0
 2838    4052  6224  2463  6233    0
 2839    4064  4201  1513  6609    0
 2840    1362  1363   787  2332    0
 2841    1382  3879  2354  9666    0
 2842    3880  9732  6374 13279    0
 2843    2349  6333  3865 13205    0
 2844    4075 10039  6627 10043    0
 2845    3946  6453  3943  9869    0
 2846    3987  6831  6518 10256    0
 2847    4321 10540   235 16297    0
 2848    6309  9643  3833 13182    0
 2849    8580 11498   671 12228    0
 2850    3837 13410  9840 17040    0
 2851    6849 10317 10312 13802    0
 2852    6377 13217  9688 13221    0
 2853     473  9667  3952  9888    0
 2854    5087  8051  1077 11632    0
 2855   10272 10319  6822 13807    0
 2856     463  3868  2350  3992    0
 2857    2303  3805  3801  6249    0
 2858    1517  6854  6847 10312    0
 2859      82  6291  3951  6524    0
 2860     842  2470  2469  6606    0
 2861    1451  6629  4076 10048    0
 2862    1078  5097  2456  8065    0
 2863    2401  6484  3963  9893    0
 2864    3852  6322  2331  9656    0
 2865    3847 13434  9860 13440    0
 2866    2334  3852  2333  3855    0
 2867    6512  9944   296 13498    0
 2868    6507  6816  2415  9922    0
 2869   12729 12732  9146 16957    0
 2870    6709 16055 13577 16060    0
 2871    5928 12625  9017 12739    0
 2872    4230  6517  4228 10286    0
 2873     160   829   828  1425    0
 2874    9592 10296  3827 13123    0
 2875    1363  2332  1362  3853    0
 2876    2428  4002  2433  9571    0
 2877    3126 11723  5276 14901    0
 2878   13155 15984  9837 17041    0
 2879    3909 13023  9467 13096    0
 2880     783 10296  9628 10297    0
 2881    7959 14739 11514 16624    0
 2882    9664  9947  2354 13205    0
 2883      16  1437   837  1438    0
 2884    9325 12979  6065 15670    0
 2885    6132  9138  3728  9413    0
 2886    2579  9908  6481  9949    0
 2887    3725  9137   776  9413    0
 2888    6559  9973  4024 13511    0
 2889    9701 13239  3893 15884    0
 2890     479  2455   475  4037    0
 2891    6593  6595  3790 13080    0
 2892    6558  9973  6563  9975    0
 2893    7764  7885  4976 11293    0
 2894     835   484   483  1423    0
 2895     483   275   835  1423    0
 2896     280  1425   828  4001    0
 2897    4055  6598   489  8068    0
 2898   13226 13228  6350 15757    0
 2899     828  2430   481  4001    0
 2900     159  1417    88  1418    0
 2901    9412 13070  2439 15786    0
 2902     275  1424   821  2435    0
 2903     827  2428   273  2433    0
 2904    7637  9336  9335 12887    0
 2905    1747  7641  2908  7642    0
 2906    9733  9734  6374 13276    0
 2907   12417 15412 11539 15413    0
 2908    1862  5113  3083  5188    0
 2909    4177 10198  6753 10203    0
 2910    1330  6543  4006  9488    0
 2911    3805  9568  6553 13103    0
 2912    3785  7763  2291 11291    0
 2913     903 13639 10125 17170    0
 2914     275  1423  1422  2435    0
 2915    9614  9623  6297 13147    0
 2916    3594 13072 12726 15581    0
 2917   15522 15525  3592 16941    0
 2918    3761  7874   234  9397    0
 2919    9066  9774  5825 13334    0
 2920   12953 13036 13035 16594    0
 2921    3738  9966  2267 13503    0
 2922    1091  1914  1122  8176    0
 2923    8815  8840  5674 12452    0
 2924   11274 14573 12987 17379    0
 2925     476  6574  1419  6576    0
 2926    7754 11268  4872 11276    0
 2927    1114  5182  1905  8156    0
 2928    7977  7978  4847 14761    0
 2929    2952  4884  4876  7749    0
 2930    3317  3318  1171  8181    0
 2931   13347 13384  9817 13388    0
 2932     896  8373  6505  9933    0
 2933    1350  3809  2305 13099    0
 2934    7951  7954  3039 11507    0
 2935    9461  9569  3800 15800    0
 2936    2448  9973  6559  9989    0
 2937    5789  5793  3504  8997    0
 2938    5759  8940  3486  8946    0
 2939    5146  8116  1877 16691    0
 2940    2546  6778  4189  6780    0
 2941    5409 11816  8814 16724    0
 2942    1532 10124  2597 10160    0
 2943    4233  6832   894  6858    0
 2944    6371  9728  3900 15859    0
 2945    9771  3910  9768 13330    0
 2946    4157  6735   496 10203    0
 2947     284  2480   847  6638    0
 2948      47   846   492   847    0
 2949   10028 13547 13546 17101    0
 2950    5163  5168  3122 14901    0
 2951    2490 10174  6645 16129    0
 2952    6620 10038  1513 10040    0
 2953     375  5493  5492  8162    0
 2954    1988  3322   116  3326    0
 2955    1469  2512  2509  4111    0
 2956    2509  2512    93  4111    0
 2957    2161  2165   432  3569    0
 2958     853  1476   852  4122    0
 2959    4239  6864  2467 10051    0
 2960    2535 10210  4196 10212    0
 2961    4345 10240  2547 14129    0
 2962    5757  8942  5755 15591    0
 2963   13495 16023  3983 17093    0
 2964    1549  4331  4326 10572    0
 2965    4322 14076  8739 15357    0
 2966    2515 13563 10098 13621    0
 2967    6500  6501  3978  9931    0
 2968   11959 15067 15066 17129    0
 2969    3372  5565  1836  8678    0
 2970   10025 13542 10047 13543    0
 2971     292  1469   867  2509    0
 2972    2611 10041  9928 13562    0
 2973    2404  6482  3962  6483    0
 2974    6030  9263  3673  9267    0
 2975    1143 12130  5402 12388    0
 2976    1457  1476   853  1494    0
 2977    9040  9043  2128 13906    0
 2978    8510 12148  3214 12191    0
 2979    5927  9156  9055 12660    0
 2980      94   859   501  1468    0
 2981    2569 10016  6489 13535    0
 2982    2784 14443 14372 16487    0
 2983    1478  2498  2497  2523    0
 2984     297  6802  4212  6813    0
 2985    2501  4094  2495  4111    0
 2986   10083 13591  6658 16062    0
 2987    6705  6709  4119 10151    0
 2988    1802  7903  4986  9815    0
 2989    4201  6620  1513 10040    0
 2990     493  2491   882  2492    0
 2991    8802  8872  5640 12443    0
 2992     530 16095 10114 16142    0
 2993     353  8006  7994 14774    0
 2994    1463  4090   877  6651    0
 2995    5415 12170  8524 15210    0
 2996    4263 13886  6907 16213    0
 2997     505   508   503   862    0
 2998    1474  4112  2520 10100    0
 2999    9047 12652  5815 12656    0
 3000    4075  6620   519  6627    0
 3001    6767 10220 10218 10443    0
 3002    1453  4153  2485 10368    0
 3003    2544  6761   851 10062    0
 3004     506   503   290   862    0
 3005     505   503   506   862    0
 3006     731  3551  2160  9135    0
 3007    4129  6687  6683  6688    0
 3008    6614 10067  2517 10069    0
 3009   13542 16041  6612 17099    0
 3010    4245  6664  2516 10093    0
 3011    1479 10106  6675 13627    0
 3012     857  2509   507  2511    0
 3013    4067  6632   164  6656    0
 3014    6827 10277   895 12051    0
 3015     287  4122  1470  4165    0
 3016    1449  1450    47  4084    0
 3017    1284  5940  2198  9175    0
 3018     508  1462   862  2506    0
 3019    2490 10101  4161 13575    0
 3020    1968 15139  8453 16758    0
 3021     497  2493   493  6648    0
 3022    6914 10403  9038 13887    0
 3023   10577 10597  4335 14122    0
 3024     857  2511   856  2512    0
 3025    1462  2498   502  2511    0
 3026    4166 10065  6738 10174    0
 3027    7018  7054  2636 10612    0
 3028    4280 13616 10091 13617    0
 3029     701  3451  1217  3452    0
 3030    4198 10213 10210 13707    0
 3031    6615 10365 10051 13857    0
 3032    5856 10409  9107 13865    0
 3033    3971  9672  1406  9919    0
 3034    6818  9875  4215 15163    0
 3035     499  1461  1457  1476    0
 3036     503   856   290  2511    0
 3037    2117  5766  3494  7484    0
 3038     857   862   290  2511    0
 3039    2476  6627  6620 10039    0
 3040    4086  6635  2486 10055    0
 3041    4109  4110  1458  6669    0
 3042    1469  2509   292  4093    0
 3043    8204 12478  1221 15456    0
 3044    3284 15287 15124 16795    0
 3045    8468 12089  3249 12101    0
 3046     856  2511   502  4089    0
 3047    6635  6636  1448 16049    0
 3048    5895 12709  5866 12710    0
 3049    2219  3644   754  5983    0
 3050    4180 13710 10596 14123    0
 3051    5689 12472  8860 14932    0
 3052   13731 13732 10178 13734    0
 3053   12654 12704  9050 16967    0
 3054    3056 11576 10445 13935    0
 3055     867  1465   501  1467    0
 3056     858   859    94  1468    0
 3057     846   854   492  2481    0
 3058    8456  8458  3245 15065    0
 3059     500   858    94  1468    0
 3060     861  2525  2497  4126    0
 3061    1489 10208  6760 10209    0
 3062    6647  6790  4088 10066    0
 3063    3656  6002  2225  6004    0
 3064    1469  2509   857  2511    0
 3065    1462  2511   867  2523    0
 3066    1462  2497   502  2498    0
 3067    2508  4121   512  6676    0
 3068    9040 12647 10418 12648    0
 3069     859  1462   867  1468    0
 3070    2532 10072  6703 10159    0
 3071    2702 10818  4548 10881    0
 3072    5759  8943  8937  8945    0
 3073   10230 16120 13726 16141    0
 3074    1698  8881  4727 12511    0
 3075   14104 16186 13821 16359    0
 3076     878  4165  2513  6641    0
 3077    2549  6764  6762 13705    0
 3078    2188  1282  2189  5901    0
 3079    2524  4123  4122  6604    0
 3080   10125 13639  1532 13640    0
 3081    3434  8856  5669 12482    0
 3082    3322  3326  1864  5126    0
 3083    4161  6671  2514 10101    0
 3084    6900  6902  2591 10382    0
 3085    2519  6706  6667  6732    0
 3086    1472  4108   872  6668    0
 3087    5942  5949  3620  9189    0
 3088    6504 13477  3979 13478    0
 3089    2550 10583  6939 10595    0
 3090    9147 12662  5823 16943    0
 3091   10708 14184  4382 14245    0
 3092     503  1462   502  2511    0
 3093     501  1465   867  1468    0
 3094    2319  9572  6283  9628    0
 3095    2510  4111  1469 10070    0
 3096    4609  5739   987  8911    0
 3097    6788 10240 10238 13736    0
 3098    2154  9196  5937 15543    0
 3099    5347 11999  8395 16291    0
 3100     512  2498   873  2523    0
 3101    8304 11886  5241 11888    0
 3102    6920 10105  4270 10412    0
 3103    6689 10388 10129 13873    0
 3104    4128  6686  2526 10133    0
 3105    2104  8890  5722 12543    0
 3106    2508  4108   512  6668    0
 3107    1478  2498   873  2525    0
 3108    4256  6900  2591  9095    0
 3109    1477  2521   869  4120    0
 3110    1460   861  1459  2497    0
 3111    1194 11918  8367 15040    0
 3112     850 10064  6644 13575    0
 3113     502  1462  1459  2497    0
 3114    2680  4429  1576  7180    0
 3115    3309  5485  5483  8605    0
 3116    1362  3853   458  6308    0
 3117    6344  9697  3880  9732    0
 3118   15837  9840 15866 15846    0
 3119   13186 13253  6346 15860    0
 3120     295  4061  2469  4062    0
 3121    4741 10391   416 16212    0
 3122    3832  6290  6288  9607    0
 3123   11875 15013  5293 15015    0
 3124    1312 11123  7576 14492    0
 3125    8025  9281  6037 11582    0
 3126    8182  8474  5207 11741    0
 3127    2485  4153  2536  6725    0
 3128    5199  8082  1911 11661    0
 3129    5047 11536  2021 11542    0
 3130    3181 11842  7965 14775    0
 3131   13744 16153  6971 17141    0
 3132     265  9666  2346 13205    0
 3133    1378  1379   797  3865    0
 3134    4078 13853 10364 13854    0
 3135    4095  4111   509  6713    0
 3136    5991  6055  3509  9311    0
 3137   14040 16311 14038 16313    0
 3138   11976 11977  8389 13947    0
 3139     491 13536 10015 16038    0
 3140    1470  2513   287  4165    0
 3141    1913  8160  5185  8162    0
 3142    9689 13217  6345 13284    0
 3143     948  7316  4498 10851    0
 3144    1363  3853  2331  6320    0
 3145    9942 13487  9935 17093    0
 3146    3878  9679  6343 13206    0
 3147    9402 12965  6376 15732    0
 3148   11734 12045  5180 14915    0
 3149     260  1369   790  2343    0
 3150    1403  6473  6467 13462    0
 3151    6522  9661  3989  9950    0
 3152    6862 13821 10336 16186    0
 3153     204 11559 11503 16614    0
 3154    9344 11601  8036 12341    0
 3155    2335  9585  3859 13203    0
 3156    7014 10567  5225 14091    0
 3157    9578  9835  6264 13400    0
 3158     645  1903  1111  5184    0
 3159    9682 17296 17056 17384    0
 3160     271  6477  4234  6518    0
 3161     817  3877  2424  3995    0
 3162    4336  7033  2632 10595    0
 3163    8285 11692 11691 14886    0
 3164     682  3102  1887  8110    0
 3165    5363  8433  8431 12028    0
 3166    2011  5119  1174  5124    0
 3167   12107 12109   664 15221    0
 3168    2238  9300  6046 12622    0
 3169    4842 11254  8367 12417    0
 3170     128  8470  3255  8480    0
 3171    4147  6711   514 13658    0
 3172    5817 10420  1239 10422    0
 3173    4171  4190   885  6740    0
 3174     850  2545  1457  6739    0
 3175    1462  1468   858  2523    0
 3176    1494  4164   849 10064    0
 3177    1450  6606  2475  6607    0
 3178    3027  7667  5005  7914    0
 3179     620  7906  4997 11454    0
 3180   10332 12179  5616 12381    0
 3181    1185  3304  2035  3305    0
 3182    4916  4917  1801  7807    0
 3183    5075 10489  8028 13990    0
 3184    1351  9581  6267 13111    0
 3185    1111  1903   215  3132    0
 3186    5801  9013  3517  9045    0
 3187    4804 11196  9335 15677    0
 3188    1633  7458  4569 10817    0
 3189    6935 15562 13655 16115    0
 3190    3518  6911  5812  9043    0
 3191    6938 10445  3056 13934    0
 3192   13662 13663  2534 13664    0
 3193   10084 13599 10085 13600    0
 3194    6868 10346  4241 12690    0
 3195    2865  9202  9201 12779    0
 3196   10114 13629  6684 16092    0
 3197    6045  6049  2238  9297    0
 3198    3031  4866  1033  7737    0
 3199    3191  5484  3193  8606    0
 3200    1086  5125  3082  5127    0
 3201     285  2514  1477  2521    0
 3202    4170  4188   884  6780    0
 3203     849   853   287  1494    0
 3204    5962  9193  1285 12776    0
 3205    2220  3616   755  5987    0
 3206    7299 11039  7503 14338    0
 3207    6877 13727  6684 16092    0
 3208    2484 13571 10059 17104    0
 3209    1613 10854  4594 16477    0
 3210    1515  8408  6457  9879    0
 3211    3485 12550  7560 15479    0
 3212    1431  5097  4040  9981    0
 3213    1131  3170   657  3171    0
 3214    5092  6564  4026  8061    0
 3215    1279  2180   433  3692    0
 3216    1284  3602  2191  3614    0
 3217   10363 13933  6772 13992    0
 3218    1323 12319  6087 12921    0
 3219    3624  9179  5977 12770    0
 3220    2235  9271  6034  9275    0
 3221    2517  6614   865 13586    0
 3222    3071  5097  1431 11654    0
 3223    4244 10164 10163 13703    0
 3224     847   855   284  2481    0
 3225    1466  1467   292  2508    0
 3226    3568  3587  2140  5889    0
 3227    2539  6706  4245  6732    0
 3228    7776 14552 11297 16550    0
 3229    3682  9283  6049 12847    0
 3230   13920 16219  6910 16233    0
 3231    7661 11191  4808 14539    0
 3232    5215  8193  5211  8194    0
 3233    4375 10698  9012 11103    0
 3234     675  8537  8534  8581    0
 3235    6010  9187  3620 12773    0
 3236    2601 10219  6941 14104    0
 3237    4563  7354  4562 10912    0
 3238    2465  3071   489  6598    0
 3239    5799 10693   414 11395    0
 3240    1010  1731  1009  2886    0
 3241    2723  7281  4498 10851    0
 3242     320  1634   969  1667    0
