   0    -200  -200  -207.84609690826531
   1    -200  200  -207.84609690826531
   2    200  200  -207.84609690826531
   3    -200  -200  207.84609690826531
   4    200  200  207.84609690826531
   5    200  -200  -207.84609690826531
   6    200  -200  207.84609690826531
   7    -200  200  207.84609690826531
   8    200  -200  0
   9    -200  -200  0
  10    200  0  207.84609690826531
  11    0  -200  207.84609690826531
  12    -200  0  207.84609690826531
  13    0  200  207.84609690826531
  14    0  200  -207.84609690826531
  15    -200  0  -207.84609690826531
  16    200  0  -207.84609690826531
  17    0  -200  -207.84609690826531
  18    0  0  207.84609690826531
  19    0  -200  7.6980035891950438
  20    200  -200  103.92304845413265
  21    200  200  0
  22    -95.999999999999986  -200  -100.07404665953513
  23    -200  -100  -207.84609690826531
  24    -100  -200  -207.84609690826531
  25    0  0  -207.84609690826531
  26    -200  200  0
  27    -200  0  7.6980035891950536
  28    -200  -200  103.92304845413265
  29    -100  -200  207.84609690826531
  30    -200  -100  207.84609690826531
  31    200  -100  207.84609690826531
  32    100  -200  207.84609690826531
  33    200  -46  51.961524227066327
  34    200  200  103.92304845413265
  35    200  100  207.84609690826531
  36    100  200  207.84609690826531
  37    0  200  7.6980035891950536
  38    -200  -200  -103.92304845413265
  39    -83.333333333333343  -83.333333333333329  -207.84609690826531
  40    200  200  -103.92304845413265
  41    100  200  -207.84609690826531
  42    200  100  -207.84609690826531
  43    200  -200  -103.92304845413265
  44    200  -100  -207.84609690826531
  45    100  -200  -207.84609690826531
  46    -200  200  -103.92304845413265
  47    -100  200  -207.84609690826531
  48    -200  100  -207.84609690826531
  49    -99.851851851851848  -200  0
  50    -200  -97.851851851851848  -51.961524227066327
  51    -83.333333333333343  -83.333333333333329  207.84609690826531
  52    -57.643382929058028  -200  103.95318652522063
  53    -135.41666666666669  -135.41666666666669  207.84609690826531
  54    -200  -200  155.88457268119899
  55    -200  -82.911392405063282  91.328529923709198
  56    200  -109.76470588235294  117.1681428649535
  57    150  -200  207.84609690826531
  58    200  -150  207.84609690826531
  59    83.333333333333343  -83.333333333333329  207.84609690826531
  60    82.911392405063282  -200  91.328529923709198
  61    200  75.648648648648646  84.339951485673751
  62    200  130.9813581302131  137.58387600929473
  63    150  200  207.84609690826531
  64    200  150  207.84609690826531
  65    83.333333333333314  83.333333333333329  207.84609690826531
  66    82.911392405063282  200  91.328529923709198
  67    -200  200  103.92304845413265
  68    -100  200  207.84609690826531
  69    -200  100  207.84609690826531
  70    0  0  7.8460421197564862
  71    -146.14305364511688  -200  -152.17322432079612
  72    -200  -200  -155.88457268119899
  73    -200  -150  -207.84609690826531
  74    -150  -200  -207.84609690826531
  75    -200  -122.6601031411158  -129.57674466270998
  76    12.493827160493881  -200  -100.07404665953514
  77    -50  -200  -155.74160975739963
  78    -50  -147.61904761904762  -207.84609690826531
  79    -200  50  -100.07404665953513
  80    50  100  -207.84609690826531
  81    50  200  -100.07404665953513
  82    125  125  -207.84609690826531
  83    200  200  -155.88457268119899
  84    200  55.017153371351526  -64.487285898787121
  85    106.00969288848077  -200  -113.55487992691576
  86    200  -200  -155.88457268119899
  87    150  -200  -207.84609690826531
  88    200  -150  -207.84609690826531
  89    83.333333333333314  -83.333333333333329  -207.84609690826531
  90    200  -72.882229248527977  -81.677963176755298
  91    -200  124.25301204819277  -131.10952197320239
  92    -200  200  -155.88457268119899
  93    -200  150  -207.84609690826531
  94    -150  200  -207.84609690826531
  95    -78.33734939759033  200  -86.927154987626807
  96    -83.333333333333343  83.333333333333329  -207.84609690826531
  97    -200  -200  -51.961524227066327
  98    0  -111.9047619047619  207.84609690826531
  99    -50  -200  207.84609690826531
 100    -128.82718861611869  -200  129.90381056766583
 101    -200  -150  207.84609690826531
 102    -100  16.666666666666664  207.84609690826531
 103    -147.61904761904762  -50  207.84609690826531
 104    -200  -50  155.66725606595583
 105    -143.10363151824151  -200  58.536005645907849
 106    -200  -146.36752702069157  51.961524227066327
 107    125  -200  144.66766516486766
 108    200  -200  155.88457268119899
 109    111.9047619047619  0  207.84609690826531
 110    200  -29.543529411764691  131.83474156208024
 111    200  -112.84505807237201  -4.1157579581415398
 112    99.541133584109048  -200  -8.0726973985548316
 113    146.36752702069157  -200  51.961524227066327
 114    85.88739660490323  -77.303052185749749  85.131324234514153
 115    200  200  155.88457268119899
 116    125  136.9047619047619  207.84609690826531
 117    125  200  144.66766516486766
 118    146.41930702241984  58.398184176394302  207.84609690826531
 119    200  65.221839279374876  150.54949114329
 120    200  111.60482862862527  3.5117874930494111
 121    146.36752702069157  200  51.961524227066327
 122    200  141.40816749948686  71.374336351678465
 123    -16.666666666666679  100  207.84609690826531
 124    50  147.61904761904762  207.84609690826531
 125    50  200  155.66725606595583
 126    106.11695134279569  103.24571146920756  111.03392402331269
 127    -200  101.85185185185186  51.961524227066327
 128    -101.85185185185186  200  51.961524227066327
 129    -108.33333333333336  108.33333333333336  207.84609690826531
 130    -123.27592592592589  200  130.16932041368202
 131    -200  123.2759259259259  130.16932041368204
 132    -72.933648743115214  -75.323265028699709  80.794585075196053
 133    -45.925925925925888  -99.958691650230122  -48.035542396576872
 134    -171.39249682232779  -200  -178.394013243513
 135    -200  -200  -181.86533479473215
 136    -200  -175  -207.84609690826531
 137    -175  -200  -207.84609690826531
 138    -132.57575757575756  -132.57575757575756  -207.84609690826531
 139    -200  -154.67182764497761  -162.30454182589
 140    -200  -36.407269274600679  -114.37349066101331
 141    -147.61904761904762  -50  -207.84609690826531
 142    -200  -148.64241212388231  -78.499629688085662
 143    -148.89031339031339  -200  -77.942286340599495
 144    -50  -200  -207.84609690826531
 145    22.795071335927361  -128.18695571613858  -207.84609690826531
 146    4.2469135802469324  -200  -153.72821524722565
 147    50  200  -207.84609690826531
 148    75  150  -207.84609690826531
 149    200  150  -207.84609690826531
 150    150  200  -207.84609690826531
 151    200  116.72166934311163  -123.86248407630585
 152    124.28395061728395  200  -129.90381056766583
 153    97.2222222222222  13.8888888888889  -207.84609690826531
 154    69.409647446587883  70.505599305852684  -80.198460577024278
 155    144.8416876265232  -200  -152.84548518284606
 156    200  -126.72967987213943  -135.41719759524932
 157    132.57575757575756  -132.57575757575756  -207.84609690826531
 158    200  -200  -181.86533479473215
 159    200  -175  -207.84609690826531
 160    175  -200  -207.84609690826531
 161    141.98232323232321  -42.108585858585847  -207.84609690826531
 162    200  -50  -152.59444987057742
 163    -125  200  -140.96743745446156
 164    -125  136.90476190476193  -207.84609690826531
 165    -200  155.66305149982384  -163.25834742492776
 166    -200  117.01615453203559  -38.070116222783319
 167    -124.80432651376525  200  -23.35933418094524
 168    -21.078431372549019  126.96078431372548  -207.84609690826531
 169    -18.304067793590477  200  -133.86948814294331
 170    -128.18695571613861  22.795071335927375  -207.84609690826531
 171    -200  50  -207.84609690826531
 172    -99.68480729215014  93.561972794355086  -100.19479790651893
 173    58.398184176394288  -146.41930702241984  207.84609690826531
 174    57.63675706994313  -200  154.54724001821759
 175    -6.1876920633710455  -200  143.34151537408209
 176    -74.768518518518533  -143.98148148148147  207.84609690826531
 177    -75  -200  157.45772610700143
 178    -150  -200  207.84609690826531
 179    -200  -132.09663799455257  140.58155545642376
 180    -200  -50  207.84609690826531
 181    -200  32.245382849101077  113.0676996740207
 182    -148.80952380952382  1.1904761904761934  207.84609690826531
 183    -200  -200  51.961524227066327
 184    -133.76207863008119  -128.37105966909277  93.779152846194464
 185    -200  -139.9453982383869  -8.3264633545786353
 186    136.9047619047619  -125  207.84609690826531
 187    159.94252245131287  -200  167.37627026798003
 188    200  -200  181.86533479473215
 189    175  -200  207.84609690826531
 190    200  -175  207.84609690826531
 191    159.66859716859716  -159.66859716859716  207.84609690826531
 192    200  -146.99247290426473  154.91507928130133
 193    146.86147186147184  -58.00865800865801  207.84609690826531
 194    200  -50  207.84609690826531
 195    200  -140.71800568391231  -67.553143516439945
 196    147.81061200164567  -200  -58.052062966364588
 197    200  -200  51.961524227066327
 198    150.20376605681358  -200  101.66126130956617
 199    200  -150.09670987038882  77.942286340599495
 200    149.3364009963166  -200  1.3665298582902399
 201    200  -64.707993402968668  97.44786871468358
 202    55.447170445761692  -200  35.642104369339044
 203    27.38095238095239  -55.952380952380949  207.84609690826531
 204    126.81802974253131  11.188534666338143  81.810724956181119
 205    113.06820710526699  -44.340198208348333  -17.895841848603297
 206    159.66859716859716  159.66859716859716  207.84609690826531
 207    159.94252245131287  200  167.37627026798003
 208    200  160.00211500476155  167.4336132292722
 209    125  173.40521114106019  207.84609690826531
 210    125  200  181.2031893157785
 211    154.83182026993538  102.86866085579797  207.84609690826531
 212    200  14.422399452172311  158.49344820002648
 213    200  50  207.84609690826531
 214    114.61514718368235  200  -34.471270025644273
 215    200  200  51.961524227066327
 216    150.20376605681358  200  101.66126130956617
 217    -44.047619047619051  44.047619047619051  107.84606951401091
 218    50  200  207.84609690826531
 219    -34.029510904507902  200  125.19207103439274
 220    -1.1904761904761862  148.8095238095238  207.84609690826531
 221    200  93.570994266145348  121.08818507005137
 222    34.523809523809504  98.80952380952381  146.40768428664072
 223    139.65459811177863  139.97832646370691  147.82032131320139
 224    130.26066597884437  123.78399757383926  38.638708211085671
 225    104.23124819559527  43.933706864340152  151.5256319870532
 226    -200  200  51.961524227066327
 227    -150  200  207.84609690826531
 228    -149.30707420802358  200  81.000073820894414
 229    -200  150.92592592592592  77.942286340599495
 230    -52.824829526050813  -200  41.451074781256047
 231    -98.80952380952381  -34.523809523809526  145.452659694864
 232    -41.753086419753046  -200  -51.752578415359601
 233    -107.06467392300644  -108.15286269627333  -119.72513768502834
 234    43.160486300938025  -131.73550713882219  -41.908694971517981
 235    -99.990977797259205  -23.353510217603059  -4.4169697092613092
 236    -184.28476428865815  -200  -191.76185384574654
 237    -200  -200  -194.85571585149873
 238    -200  -187.5  -207.84609690826531
 239    -187.5  -200  -207.84609690826531
 240    -162.5  -162.5  -207.84609690826531
 241    -200  -173.37488561713135  -181.26381819935963
 242    -94.106825678761737  -155.57119020706944  -207.84609690826531
 243    -98.275692670465702  -200  -159.45826004403165
 244    -200  -161.47002392619518  -117.17188048853671
 245    -161.91076879969589  -200  -115.59047513917795
 246    -155.57119020706944  -94.106825678761737  -207.84609690826531
 247    -200  -114.45953044916888  -169.61744992885897
 248    -200  -174.95460717691034  -142.28134902337695
 249    -173.87049502777018  -200  -142.43473282621454
 250    -200  -50  -207.84609690826531
 251    -200  -200  -77.942286340599495
 252    -200  -174.18249015199572  -91.491557660135129
 253    -106.27224875395608  -144.63207190759377  -50.358273445201334
 254    -21.979808515998979  -200  -178.8956466244004
 255    -25  -173.8095238095238  -207.84609690826531
 256    20.936060458198483  -62.397272875134817  -123.09243176402229
 257    50  -200  -207.84609690826531
 258    55.315961218633674  -139.71802356574349  -134.11690264251774
 259    156.25  156.25  -207.84609690826531
 260    200  200  -181.86533479473215
 261    200  151.06881433000626  -158.83754064706915
 262    155.2806122294559  200  -162.89034506543507
 263    71.492565303656079  200  -153.96007178390022
 264    112.5  162.5  -207.84609690826531
 265    109.8388016033758  200  -168.15736949521829
 266    200  40.620673945760466  -141.19875229255285
 267    200  50  -207.84609690826531
 268    43.803418803418772  40.598290598290596  -207.84609690826531
 269    200  118.76329671825981  -59.990556565358254
 270    101.01010101010101  71.969696969696983  -207.84609690826531
 271    117.89985901617101  118.17930693447119  -126.28928621981522
 272    200  -157.85671401326695  -165.36920016267371
 273    125  -200  -182.44856249550099
 274    125  -170.49710589036431  -207.84609690826531
 275    200  -175.2347467399525  -183.0534703992198
 276    200  -200  -194.85571585149873
 277    200  -187.5  -207.84609690826531
 278    187.5  -200  -207.84609690826531
 279    163.08045872676675  -163.08045872676675  -207.84609690826531
 280    167.883448964422  -200  -175.9796808165604
 281    200  -50  -207.84609690826531
 282    153.09753868662685  -88.986942299241065  -207.84609690826531
 283    -125  200  -179.07940868692259
 284    -125  173.40521114106022  -207.84609690826531
 285    -200  164.2546326092565  -123.44567427889409
 286    -142.58924129591466  200  -82.133958489782344
 287    -166.18397440073181  200  -129.90381056766583
 288    -163.53697806092947  200  -170.83503679098391
 289    -200  200  -181.86533479473215
 290    -200  175  -207.84609690826531
 291    -175  200  -207.84609690826531
 292    -160.45668791625664  155.15498652291106  -207.84609690826531
 293    -141.41940122710318  139.7807557960455  -147.35713684201738
 294    -200  148.97344514325647  22.292795373442157
 295    -50  200  -207.84609690826531
 296    -11.12564726978815  200  -62.830562556335238
 297    22.015730639087437  123.57147283670668  -129.43745473959405
 298    -200  13.66005460885599  -148.69899279126147
 299    -200  99.393820164483486  -86.241983307714747
 300    -200  51.122595235684393  -34.06864773862663
 301    -62.397272875134838  20.936060458198497  -207.84609690826531
 302    -104.93514267533403  100.03878888797216  5.3632395181140566
 303    43.933706864340159  -104.23124819559528  144.4670044601593
 304    50  -200  207.84609690826531
 305    102.86866085579796  -154.83182026993535  207.84609690826531
 306    94.16261454888118  -200  169.00069211848876
 307    -25.486318865438992  -155.67636213686151  207.84609690826531
 308    16.425753966066779  -150.77436484953876  207.84609690826531
 309    21.45918435117628  -200  173.23852241374993
 310    -45.543126907726958  -108.92538998880678  145.1220220357352
 311    -75  -200  207.84609690826531
 312    -54.566215827895547  -168.53400252935265  207.84609690826531
 313    -114.90306302318409  -200  169.05598521182984
 314    -200  -161.41483537790742  168.79300404214794
 315    -157.39675921185372  -200  162.11640991932626
 316    -163.1030701754386  -163.1030701754386  207.84609690826531
 317    -155.0595238095238  -94.642857142857139  207.84609690826531
 318    -200  71.137735035292934  156.87177372946553
 319    -150.42588164973102  63.018031480374582  207.84609690826531
 320    -173.80952380952382  -25.000000000000007  207.84609690826531
 321    -200  -25  181.75667648711055
 322    -149.92592592592592  -200  8.2478702888272988
 323    -200  -166.71850984285047  19.307602544328319
 324    -200  -200  77.942286340599495
 325    -200  -153.24007629064056  98.527311160973355
 326    -157.71802855512965  -200  98.571310201265376
 327    -94.235739537530833  -200  69.695329000224206
 328    -91.148869517957877  -155.967788009413  122.6516383448936
 329    -200  -88.605035311242148  134.82801459699036
 330    -200  -87.411357565844895  27.755732357768025
 331    -159.20175081004527  -200  -34.964882799743471
 332    -200  -161.91866772192972  -41.22869582782976
 333    125.69740838184764  -124.0755916642959  131.63292709987863
 334    200  -169.06132114047588  177.11308884641988
 335    176.4857073179098  -200  184.25720777660189
 336    176.39137950915406  -176.39137950915406  207.84609690826531
 337    173.40521114106019  -125  207.84609690826531
 338    200  -125  182.71563833461835
 339    200  -76.034633490800502  159.40063718327221
 340    104.4718044823756  -44.016183305521963  148.68599041420174
 341    200  -24.913043478204933  173.78205619610424
 342    169.05941139647859  -25  207.84609690826531
 343    152.74466935462445  -200  -106.20007793348336
 344    200  -200  -51.961524227066327
 345    171.49528087883937  -200  132.08505710333279
 346    200  -173.96255171001104  129.90381056766583
 347    173.18376351034578  -200  74.889549035143062
 348    200  -200  77.942286340599495
 349    200  -101.66978390243554  50.441982946999055
 350    129.08094659962285  -131.58731891860879  -27.842224014092274
 351    200  -144.8139332442999  30.855958905850596
 352    100.11268126439222  -141.05301931749199  48.229143839008032
 353    200  11.188534666338171  81.810724956181119
 354    142.15625379380185  -49.861911432526746  76.963525931399531
 355    68.583551819073293  -17.240971525646415  39.41050430699638
 356    200  -15.572281192179798  -23.682647494560548
 357    112.3483298578977  -19.908095941879942  -114.90726427891715
 358    175  200  207.84609690826531
 359    86.801134879215965  162.54480415209039  207.84609690826531
 360    86.82109263471952  200  170.42919925314496
 361    125  200  207.84609690826531
 362    146.96421168289169  200  185.64403234343547
 363    146.84411500449235  177.91882178674632  207.84609690826531
 364    200  121.83220208809692  175.51121170404741
 365    200  125  207.84609690826531
 366    200  75  207.84609690826531
 367    200  87.78222991068283  176.05888802358587
 368    200  43.077173207978134  175.33665165343311
 369    168.63301704921446  25  207.84609690826531
 370    49.405061998520402  200  -34.865483853927422
 371    200  156.69351440932144  24.185766215531903
 372    173.18376351034578  200  74.889549035143062
 373    200  200  77.942286340599495
 374    200  169.56385215265084  129.10515454059043
 375    173.87044865190245  200  129.90381056766583
 376    -65.972222222222257  65.972222222222243  207.84609690826531
 377    -125.70503685352679  81.923705143853766  99.458927804539869
 378    25  173.8095238095238  207.84609690826531
 379    25  200  181.75667648711055
 380    -76.927976195354404  200  158.60682544526679
 381    -63.018031480374574  150.42588164973102  207.84609690826531
 382    157.1484515952088  110.90120597138673  89.891593996471727
 383    -42.227221849008941  120.27323450236381  134.0995283213401
 384    34.523809523809504  98.809523809523824  207.84609690826531
 385    -17.500000000000043  48.472222222222221  207.84609690826531
 386    17.604743664303459  100.02455367149204  40.944023952973239
 387    64.22344224467389  148.67047343051524  122.35602105611268
 388    153.28696457231229  131.60611755493426  207.84609690826531
 389    115.89820084887874  156.67174671433037  100.78912671647836
 390    117.20317099329432  99.979544253892755  207.84609690826531
 391    137.97831076842118  172.24560910584069  162.93542724032307
 392    148.98335216092229  85.500781887090113  141.69276617665429
 393    200  45.6831816434171  0.82547537951034267
 394    81.654730115344933  200  24.116978047975827
 395    84.752547332915356  91.628168366627165  156.75136814779157
 396    104.2312481955953  43.933706864340159  207.84609690826531
 397    28.837788907782681  18.467565244561403  133.87632572627095
 398    -200  200  155.88457268119899
 399    -200  150  207.84609690826531
 400    -125  156.06060606060606  207.84609690826531
 401    -162.45566073226968  200  119.43650883194695
 402    -200  166.03638361949672  129.90381056766583
 403    -200  200  77.942286340599495
 404    -87.670527856995307  -132.96929915876674  33.582116424200954
 405    -98.80952380952381  -34.523809523809526  207.84609690826531
 406    -49.820848859530273  9.4082401761517307  207.84609690826531
 407    -200  -25.38820240696959  102.49050779404357
 408    -136.63378328279299  -61.336950984116754  96.855700910183046
 409    -39.848909045099475  -200  -104.22511929162224
 410    -200  -83.52835293627065  -99.312118961754493
 411    -143.98582349435304  -141.37557866650204  -150.96634191353985
 412    -113.96673834270757  -19.992068191272381  -130.95001075678394
 413    43.160486300938018  -200  -41.908694971517974
 414    -14.716752217831221  -149.63925512084705  -26.35340629950089
 415    -39.910626530777868  -62.145647397157674  15.596162105023907
 416    -200  -32.499386679283809  -49.074100354736828
 417    -162.5  -200  -194.43020856355648
 418    -162.5  -183.33333333333334  -207.84609690826531
 419    -127.03933439281462  -171.51311146427153  -207.84609690826531
 420    -126.12291628767868  -200  -181.53023265370922
 421    -200  -180.44675820393056  -162.02715520983122
 422    -200  -200  -168.87495373796557
 423    -180.85048197267201  -200  -160.98075346406637
 424    -200  -137.77002628069121  -183.5810946756213
 425    -171.51311146427156  -127.03933439281462  -207.84609690826531
 426    -200  -156.0388041990322  -189.58787843933001
 427    -183.33333333333334  -162.5  -207.84609690826531
 428    -200  -181.25  -194.12318632015268
 429    -182.29166666666666  -181.25  -207.84609690826531
 430    -200  -186.782996498432  -175.2747419906228
 431    -186.20532438210844  -200  -175.16440274883257
 432    -165.83508078453332  -164.4364674445643  -171.37665203836048
 433    -68.048315838491874  -173.8095238095238  -207.84609690826531
 434    -72.275204311859241  -200  -181.79385333283247
 435    -97.81292894708865  -118.09616196200226  -207.84609690826531
 436    -73.258104781320824  -144.91325463665697  -152.74426120944139
 437    -121.11843543350804  -77.548139084350538  -165.64116390068682
 438    -200  -200  -129.90381056766583
 439    -176.44749504775473  -176.64065723403135  -125.20032719534365
 440    -200  -64.050276738844019  -158.0782875071155
 441    -174.4451566951567  -200  -90.179886777661963
 442    -106.27224875395609  -200  -50.358273445201348
 443    -126.98182507825575  -154.99210638344414  -99.849862283513019
 444    -112.72755604375124  -72.431736271844827  -56.595181461527453
 445    -25  -200  -207.84609690826531
 446    11.397535667963689  -164.09347785806929  -207.84609690826531
 447    19.855607303396827  -56.161589966343904  -44.226375291115119
 448    -19.482074245054719  31.054694434186203  -112.23881979887223
 449    20.93606045819849  -62.397272875134817  -207.84609690826531
 450    62.07493077521616  -200  -151.23799855983503
 451    61.831416021940562  -200  -88.919518737687156
 452    77.251281436128153  -141.24068052249797  -207.84609690826531
 453    -3.3606377679687824  -131.10488439188646  -95.346835545943605
 454    127.65259731732283  -132.78668252216048  -130.99926855353652
 455    200  175  -207.84609690826531
 456    200  159.02591431238531  -116.67051400550993
 457    200  108.84485876823446  -165.95066275618132
 458    164.0625  117.1875  -207.84609690826531
 459    175  200  -207.84609690826531
 460    200  171.32648591786187  -179.29274466972433
 461    75  200  -207.84609690826531
 462    87.5  175  -207.84609690826531
 463    136.71875  175.78125  -207.84609690826531
 464    134.61438999005054  200  -183.25085292529704
 465    148.9342833092833  9.335918710918726  -207.84609690826531
 466    51.222697056030384  -11.336657169990497  -207.84609690826531
 467    200  200  -51.961524227066327
 468    132.45026038947412  84.751802173818959  -31.924396882820552
 469    79.011266511266484  44.240481740481762  -145.86645941328237
 470    200  88.919433455370381  -91.005209044635933
 471    86.424685334345952  200  -116.77516913474503
 472    88.472340224676671  109.58297932596999  -207.84609690826531
 473    147.74290814133923  148.55038708337509  -156.75981276552008
 474    91.848490496112547  151.47524233509336  -157.86401420495213
 475    200  -119.63120517042682  -173.94423156913587
 476    169.74912098182608  -123.45184518930462  -207.84609690826531
 477    125  -200  -207.84609690826531
 478    178.48951141073431  -178.48951141073431  -207.84609690826531
 479    200  -142.05381367686181  -184.41128067133533
 480    146.19972621360961  -177.87662683745816  -207.84609690826531
 481    147.37840381772617  -200  -185.4235474075264
 482    142.42028791407543  -156.53714589262015  -167.38934185198198
 483    200  -179.18936866793894  -161.78664616049781
 484    185.78303136799181  -200  -168.87495373796557
 485    200  -162.74028569209986  -129.14396093046651
 486    170.01136226988498  -19.704314519655423  -207.84609690826531
 487    200  -25  -180.22027338942138
 488    169.03287399199561  -60.451623542161279  -207.84609690826531
 489    200  -75  -180.22027338942138
 490    -70.462445907405623  200  -155.30027540385964
 491    -71.378442698799191  149.28902038680263  -207.84609690826531
 492    -125  200  -207.84609690826531
 493    -200  200  -51.961524227066327
 494    -108.65744161527692  146.57820177513938  -60.323429242234567
 495    -200  200  -129.90381056766583
 496    -200  147.96637812056065  -76.70164588825196
 497    -200  200  -77.942286340599495
 498    -169.12774863818558  200  -98.737863812347058
 499    -200  175.69894925081218  -146.74872845366303
 500    -146.5456664678413  200  -185.60151899980653
 501    -148.80140875279369  176.07889953855428  -207.84609690826531
 502    -200  173.94807599337625  -181.81537089606277
 503    -200  186.95009120940981  -194.32656587103708
 504    -200  200  -194.85571585149873
 505    -187.5  200  -207.84609690826531
 506    -200  187.5  -207.84609690826531
 507    -175.16558400614323  175.16558400614323  -207.84609690826531
 508    -178.72479500108037  200  -186.41177090429807
 509    -200  125  -182.01736415140732
 510    -200  125  -207.84609690826531
 511    -149.46971000526344  75  -207.84609690826531
 512    -162.86101204574163  161.73927869935665  -170.22187581469839
 513    -174.97936624761203  146.78898870326833  -140.50995443304777
 514    -200  71.163862807719426  -153.78273602847852
 515    -139.64546705846087  168.37043336049078  -113.29990524510112
 516    -200  159.93858130577917  -22.153218441719588
 517    -166.84476004881478  200  -25.980762113533164
 518    -151.73406558366949  200  26.470017314036689
 519    -33.467813614337672  200  -171.15095275623645
 520    -25  167.65363863666272  -207.84609690826531
 521    -0.060107917253262144  75.198039911555099  -207.84609690826531
 522    22.307745401732724  200  -163.07368424242512
 523    25  156.25  -207.84609690826531
 524    69.458408582511424  137.67515040374107  -83.87896818409483
 525    7.7578828017573507  200  -100.62087586016705
 526    -43.983418258633023  139.15751051835466  -104.85147813644751
 527    -163.10783754298092  38.999337439599188  -207.84609690826531
 528    -200  25  -182.46890954028055
 529    -157.8479199334069  -8.2783197488299045  -207.84609690826531
 530    -145.02268802606415  83.044176979342168  -52.951668865959974
 531    -94.643279916761969  44.827566019762159  -150.35188789559018
 532    -64.182863757699835  200  -0.67489655703339757
 533    -65.167882866916997  37.330226188991894  32.100013699501829
 534    -200  106.05101836951289  6.3758975923784362
 535    -141.04620605940681  133.94520696223356  50.679063277192029
 536    3.4904373056652958  -200  77.394083866539432
 537    43.933706864340159  -104.2312481955953  207.84609690826531
 538    86.246128113257669  -120.95551308897389  207.84609690826531
 539    129.85540879059164  -173.8461403210286  207.84609690826531
 540    127.32756060452564  -200  179.32410787638014
 541    75  -200  207.84609690826531
 542    78.535395334571007  -147.55492848215127  155.11316629512629
 543    -25  -200  177.69518455220782
 544    25  -200  207.84609690826531
 545    13.53762427838373  -149.42822958703812  152.83233227059537
 546    39.730487845605744  -170.94185896709146  207.84609690826531
 547    -45.54312690772695  -108.92538998880678  207.84609690826531
 548    -32.296212735065922  -50.480314844008973  207.84609690826531
 549    -89.619852166761248  -200  181.60015485572546
 550    -87.5  -171.93860958065503  207.84609690826531
 551    -48.495260482401136  -142.95101094200808  172.69674162399647
 552    -200  -200  181.86533479473215
 553    -148.82351407893358  -145.99515171993349  155.47770283234502
 554    -125.1708475254888  -171.66841077381437  207.84609690826531
 555    -121.02780032467533  -77.373342803030283  169.65072568942321
 556    -173.8095238095238  -68.576388888888886  207.84609690826531
 557    -200  -75  181.75667648711055
 558    -155.48262343716891  118.64219114219117  207.84609690826531
 559    -200  50  207.84609690826531
 560    -150.1095941656047  32.091394317119281  152.37214782316047
 561    -148.21428571428572  -24.404761904761902  161.52154445916693
 562    -200  -25  207.84609690826531
 563    -174.40476190476193  0.59523809523807958  207.84609690826531
 564    -200  21.285940604969383  162.42625143253863
 565    -200  -200  25.980762113533164
 566    -168.15867557318001  -200  36.328237661107195
 567    -200  -116.88202010962245  106.58994339637357
 568    -161.2754723505318  -160.01564098885905  73.737273209297967
 569    -200  -173.31074366334246  129.90381056766583
 570    -200  -200  129.90381056766583
 571    -160.75765208342281  -200  130.36003982639528
 572    -91.148869517957877  -200  122.65163834489363
 573    -96.5033678126442  -100.6134671070609  124.39128072973685
 574    -121.44035392859976  -200  94.106636665393097
 575    -200  -108.14012200218919  61.168668983539483
 576    -128.6835190086997  -200  -18.913841038913787
 577    -172.72550412517398  -200  -9.4600175194524461
 578    -200  -170.84631428238069  -11.478121264765225
 579    -157.06386663584397  -128.71580557999783  -39.614358583883828
 580    -172.57780406885979  -200  -61.278425379635038
 581    114.53793623335439  -200  109.64791064832524
 582    154.94826235794858  -137.9602198408667  166.09932650594823
 583    200  -175.93221527317513  153.96735962062868
 584    180.56789044185209  -200  163.7101369606757
 585    200  -182.85663917710099  190.38763981642322
 586    200  -200  194.85571585149873
 587    200  -187.5  207.84609690826531
 588    150.4848374286295  -178.79160765707198  207.84609690826531
 589    155.93681270451705  -200  187.84839778085444
 590    180.1033523439516  -155.95662433379962  207.84609690826531
 591    200  -147.69496873684363  185.13882354874175
 592    166.92514919313089  -169.13482748462033  176.99649904084924
 593    200  -125  207.84609690826531
 594    155.96757388847359  -78.657297044502741  126.90935125364066
 595    165.111696479621  -89.531773258188338  207.84609690826531
 596    200  -75  207.84609690826531
 597    104.47180448237559  -44.016183305521963  207.84609690826531
 598    92.898231466204507  -93.715829017769508  157.94222220567772
 599    142.87550796337575  -0.18001086817679379  157.66740816082245
 600    200  -53.884555507378408  178.71541296832561
 601    200  -25  207.84609690826531
 602    200  -200  -77.942286340599495
 603    200  -165.68348431628482  -93.359068961114886
 604    200  -161.47550535119342  -25.980762113533164
 605    145.36165226001918  -164.01366878782832  127.71205129006708
 606    200  -200  129.90381056766583
 607    200  -170.25123028005851  100.14688145340645
 608    148.33384822035913  -154.51382607466303  76.807672161660349
 609    200  -168.33476518083316  52.056586206623834
 610    200  -72.877338472522325  16.12090653584886
 611    200  -73.225356639566996  -32.778511038872551
 612    129.08094659962285  -200  -27.842224014092267
 613    149.22850623641091  -116.12878309867011  24.98026808425719
 614    100.11268126439222  -200  48.229143839008039
 615    67.609594744063187  -154.68013005779062  3.8144122724778455
 616    121.92470807608747  -161.02831950507056  9.9094691328834799
 617    200  -74.264127335248602  66.92718427175673
 618    100.06243755514686  -29.557880628455976  99.191247294945555
 619    200  -0.11103439993944875  26.478439303051232
 620    200  -26.047462006686494  93.086361670262818
 621    64.595991636190135  13.094040019802616  -30.356211578605745
 622    105.40794871089864  -59.439536330766678  35.624433207015699
 623    200  -6.2975629074223605  -92.686952759139842
 624    138.34918762149431  -67.726959343922047  -149.03960091318135
 625    128.24168115721872  -80.289516708247319  -78.647156284262422
 626    200  200  181.86533479473215
 627    200  175  207.84609690826531
 628    60.805052573583232  173.80952380952382  207.84609690826531
 629    60.910142636984773  200  181.75667648711055
 630    103.09081076906718  177.85764981543869  207.84609690826531
 631    103.11593343179334  200  185.71923539175779
 632    176.4857073179098  200  184.25720777660189
 633    176.39137950915406  176.39137950915406  207.84609690826531
 634    133.73763913702248  200  194.52464311202189
 635    137.5  200  207.84609690826531
 636    173.09623220899249  138.36940985709467  159.43327163672981
 637    178.11869810061935  112.5  207.84609690826531
 638    170.02948443483382  76.962768345575086  207.84609690826531
 639    200  25  207.84609690826531
 640    200  0.62667079059632125  181.24556566763346
 641    200  122.53002974035256  39.189415912212837
 642    200  151.56681628943016  -24.138043323717703
 643    149.66192714791185  200  1.7025240922776375
 644    200  200  25.980762113533164
 645    173.18376351034578  200  47.743624528154058
 646    200  171.79213965905174  64.951905283832915
 647    200  162.64260251239992  96.749429992642789
 648    200  200  129.90381056766583
 649    159.87693682959423  161.86485026754315  117.59271495941347
 650    177.35913195087198  200  152.52512532588921
 651    200  177.01606687916248  151.32115092772497
 652    -200  81.923705143853766  99.458927804539883
 653    -200  53.243186682668579  24.497668857925202
 654    -200  11.889214948827521  61.678386067167587
 655    24.404761904761909  148.21428571428569  161.76390332703991
 656    25  200  207.84609690826531
 657    -50  200  207.84609690826531
 658    -17.014755452253958  200  166.51908397132902
 659    -0.59523809523810034  174.4047619047619  207.84609690826531
 660    200  110.90120597138674  89.891593996471713
 661    148.01591429757414  62.264486934958008  48.159078921822356
 662    153.11987461240463  154.67118604744073  68.708596094519123
 663    -32.567447357101344  131.90001524795431  207.84609690826531
 664    -80.200310011370874  200  99.931030929516169
 665    -84.206467260760974  74.086630451175154  147.26236619608062
 666    8.33369450188329  73.825054057172281  207.84609690826531
 667    -16.832289523049138  70.476173093793406  153.07346982424525
 668    10.476505244092944  132.21099829687108  -30.096430389850084
 669    -53.118463349147248  135.8530978289869  55.724914834165091
 670    87.81663542793072  200  130.7330358371924
 671    51.025834223615604  101.19856068030492  89.691907101426921
 672    15.018798705316785  200  75.722834942075465
 673    50.554685110742192  200  115.36399841752728
 674    135.77154936646133  116.25427929289145  177.53800447978125
 675    119.23566977874702  200  79.053711568920363
 676    119.99073005745295  122.98566661790032  78.124093103634948
 677    134.06794317649698  127.2178358089178  113.63487416980655
 678    137.97831076842118  200  162.93542724032307
 679    160.90899671861177  174.00269460778907  181.80699490329079
 680    93.529862317165623  152.93636664020468  160.7761929049461
 681    137.82448216410481  155.15498652291106  207.84609690826531
 682    200  103.2115642177011  149.89354666465866
 683    125.83186235396884  56.08958647262569  106.60774019449266
 684    200  42.244233483049953  113.00514517889437
 685    166.80452693585494  75.837999017743215  106.9921414836893
 686    168.42055120162235  113.80683168471164  125.86467678355474
 687    124.25714069971639  73.881159913584199  174.65215102108422
 688    112.89486074624591  77.184967741061982  136.90564729652189
 689    66.666666666666657  115.47619047619047  207.84609690826531
 690    50.630023102465671  40.745170727715582  207.84609690826531
 691    60.343781687732857  -13.928650958875075  207.84609690826531
 692    41.590673092178079  -41.455700946272785  148.27520125724922
 693    26.057015916901431  33.665622482265853  64.618126586501461
 694    -28.21738967746721  -28.704108339441536  119.65203150419866
 695    -200  162.44695025942886  169.78615704994962
 696    -163.33250083250084  163.33250083250084  207.84609690826531
 697    -200  200  181.86533479473215
 698    -156.03241985747832  200  163.61377229279765
 699    -92.775860819793877  166.80794797949608  207.84609690826531
 700    -102.57516188008429  140.78709876411097  148.41895575851967
 701    -173.9393760508778  200  94.040889904799599
 702    -200  175.46296296296296  90.932667397366075
 703    -200  200  129.90381056766583
 704    -151.05292793586992  144.51922013167336  107.98319152830197
 705    -88.154656699467608  -200  34.131369682497755
 706    -97.344727936879764  -152.93859149209871  75.619962161470625
 707    -148.85643616488505  -123.43404597619576  23.918444809517847
 708    -78.015863919353947  -8.4311551963526377  207.84609690826531
 709    -200  -56.000802327300228  120.6059903505529
 710    -200  -37.612324468766111  44.281637901602224
 711    -66.206483967774375  -162.51817429884042  -78.910789191686106
 712    -200  -132.09386345731542  -152.36894990756107
 713    -200  2.9468057637946501  -83.962029755123481
 714    -94.801527403178369  -26.794102168714705  -207.84609690826531
 715    -52.669524610034614  -57.529470654508849  -109.51756925299456
 716    -0.51381115599325256  -200  -36.328357016117067
 717    -65.995837593983438  -137.70014021312025  -15.405367325204523
 718    -45.2510717332827  -200  -4.9086695364642807
 719    -97.346773558177006  -74.493619777077669  26.303015594925366
 720    -149.77706879766166  8.0615496425538993  -34.605103264385093
 721    -117.0191079941569  -150.2260725233339  -177.1910901223855
 722    -125  -200  -207.84609690826531
 723    -143.26748195236206  -181.92977813093822  -207.84609690826531
 724    -143.76918648960412  -200  -189.50939101164698
 725    -187.609075969896  -200  -147.85058110812562
 726    -200  -200  -142.89419162443241
 727    -200  -187.25209738043833  -149.49759624224106
 728    -200  -125  -207.84609690826531
 729    -176.8465776452029  -104.13269232006981  -207.84609690826531
 730    -200  -85.444921359630655  -180.4919156656739
 731    -150.22607252333393  -117.01910799415691  -178.71497691512843
 732    -181.92977813093822  -143.26748195236206  -207.84609690826531
 733    -189.44124623553759  -189.49175108882727  -165.84007647350768
 734    -185.41261181376316  -160.04236174879705  -175.71137515462391
 735    -162.10212655079181  -200  -162.0727880797929
 736    -172.91666666666669  -171.32523148148147  -190.82866372600853
 737    -46.524157919245937  -169.32825463720229  -177.28880664766029
 738    -75  -200  -207.84609690826531
 739    -96.544852402233346  -200  -183.7445801773581
 740    -69.622345096600412  -200  -125.11675712667359
 741    -61.529156396407515  -112.81229626198203  -207.84609690826531
 742    -74.133534457600092  -200  -157.65594202093911
 743    -82.953655363881666  -167.37086336446029  -177.25787193531522
 744    -121.11843543350804  -77.548139084350552  -207.84609690826531
 745    -149.27950985161135  -63.379049299239007  -117.51522187469833
 746    -84.034298237135701  -103.4383366062592  -167.30475283739813
 747    -155.51841181019839  -200  -134.52470891764503
 748    -200  -182.92399856886453  -116.91342951089925
 749    -180.75461636716915  -200  -123.28140686564593
 750    -171.13504528851183  -154.84521349772524  -97.905745433038575
 751    -174.09589336865446  -150.27084066795544  -143.61086259553645
 752    -200  -200  -90.932667397366075
 753    -135.45055784506337  -200  -51.992029118372685
 754    -108.28154207049367  -145.44847093932506  -133.72834057695903
 755    -129.44743010009179  -200  -105.74214651316217
 756    -103.79071018044866  -172.31603595379687  -75.764649273171685
 757    -85.432231268681079  -108.30607200580931  -75.772881296801515
 758    -200  -49.501232278295987  -3.1873803708413497
 759    -73.714822615614949  -63.660649767119295  -23.643282881936869
 760    -37.5  -186.9047619047619  -207.84609690826531
 761    -37.5  -200  -191.90929961684503
 762    -4.1391598744149469  -178.92395996670345  -207.84609690826531
 763    -12.5  -200  -194.5173691411421
 764    34.124867589991055  -200  -174.86792672961766
 765    25  -200  -207.84609690826531
 766    23.732721808002271  -58.158054400301779  19.512936939785398
 767    2.5685878573440206  -102.58333459221022  -33.633108900193733
 768    45.545939303964161  -92.502259454480736  -165.46926433614379
 769    32.217139095237485  -200  -130.56649836133298
 770    73.438865614104685  -200  -120.03387733082707
 771    102.69615832060578  -200  -67.567150026729237
 772    32.392579153801663  -165.86775356941109  -73.398409528743059
 773    90.325219269221975  -200  -173.31963929462714
 774    75  -200  -207.84609690826531
 775    93.163668737212362  -168.86343900438374  -207.84609690826531
 776    -11.962454719287122  -200  -123.77587422551539
 777    46.282094778401373  -102.75622743023909  -91.256772633307889
 778    -15.665959416381206  -200  -77.076722806739582
 779    -10.121924910570922  -79.272867890228014  -82.496676171615789
 780    132.02163043307465  -200  -126.68123196804511
 781    147.54688011405017  -150.29595451270399  -82.405910215896654
 782    101.40463993519728  -114.50445097389361  -171.21205677554212
 783    158.26316220333965  133.13949847496406  -92.41867656930647
 784    200  174.57350203287987  -141.43869381611125
 785    173.02137595078875  200  -129.90381056766583
 786    158.69209640404972  80.096942359237914  -138.78932214836146
 787    200  125  -207.84609690826531
 788    176.24080882352942  139.93566176470588  -207.84609690826531
 789    200  146.8626200619112  -183.26174176720397
 790    200  184.63010551406254  -192.09415859482903
 791    187.5  200  -207.84609690826531
 792    200  187.5  -207.84609690826531
 793    173.72636738331443  200  -181.60203168656136
 794    174.375  174.375  -207.84609690826531
 795    106.25  181.25  -207.84609690826531
 796    125  200  -207.84609690826531
 797    87.5  200  -183.68347863152465
 798    200  25  -177.38071211116474
 799    200  25  -207.84609690826531
 800    120.90524427172153  -13.068352628011702  -167.65809976833441
 801    20.722443371553773  -27.757989056336655  -165.46926433614379
 802    200  79.857646972242122  -27.613934889728338
 803    138.67742461632741  14.563745360253492  -54.836020574449975
 804    79.011266511266484  44.240481740481762  -207.84609690826531
 805    125.68298937624704  41.19667372754823  -207.84609690826531
 806    28.280349742371911  64.843522201418068  -122.73606729440021
 807    115.06759037557677  97.551794733896131  -169.6336374642483
 808    152.30457354130328  171.83582354130328  -179.32234994493305
 809    200  140.37610807419279  -134.98549792968635
 810    147.13541666666666  134.11458333333334  -207.84609690826531
 811    98.832340142023355  200  -142.14701767048143
 812    48.175493006989626  132.16225349650517  -170.42477249698547
 813    99.027659775323329  135.55531955064666  -207.84609690826531
 814    52.809729760605229  161.56063903011261  -130.18257163253006
 815    93.750000000000014  156.24999999999997  -186.49847066807925
 816    107.53335171106707  160.63530381816236  -117.05577674464462
 817    120.75913175437785  171.02339752055966  -150.42692106031322
 818    175.37860898987898  -99.476955500530622  -207.84609690826531
 819    108.45868227614773  -181.82404337941352  -207.84609690826531
 820    112.5  -200  -195.14732970188317
 821    200  -158.97193635347881  -191.73933854078939
 822    182.4531175630772  -159.11685257442386  -207.84609690826531
 823    170.79488186380027  -170.77508827370079  -180.24147503609547
 824    182.21212078702558  -200  -188.36052532311544
 825    200  -125  -207.84609690826531
 826    131.74934414188198  -185.24855294518215  -207.84609690826531
 827    134.69877508939078  -200  -195.14732970188317
 828    163.60089422495881  -200  -193.66393825957317
 829    162.5  -186.93391848887518  -207.84609690826531
 830    141.56685732051852  -154.08935898200579  -207.84609690826531
 831    138.07373067227201  -200  -169.76027022628179
 832    106.18619334547006  -200  -145.54167154932259
 833    147.46805067857397  -112.96183198801506  -171.33117566008835
 834    171.59825002353537  -137.62190758432922  -164.65486725422846
 835    200  -200  -168.87495373796557
 836    173.55840720067246  -200  -133.71867482032144
 837    200  -25  -207.84609690826531
 838    179.48467722037731  -40.317205621511427  -207.84609690826531
 839    200  -50  -182.72130516861978
 840    200  -75  -207.84609690826531
 841    -100.8558814536479  162.75175546579811  -160.02342307069208
 842    -75  200  -207.84609690826531
 843    -59.74521910151536  200  -181.38392605408953
 844    -94.426657421243888  169.71305296060143  -207.84609690826531
 845    -93.48215799534168  200  -176.93509252407964
 846    -108.43019737280798  200  -189.92584702321588
 847    -112.5  186.7026055705301  -207.84609690826531
 848    -108.65744161527692  200  -60.323429242234567
 849    -182.15208781005555  200  -115.6900757961552
 850    -200  183.89089837825458  -116.91342951089925
 851    -167.33104676617398  200  -59.50603021402177
 852    -176.75767071995281  200  -151.13880767224035
 853    -183.09198720036591  200  -132.82236896021899
 854    -132.40599398578098  200  -193.46275279759396
 855    -135.55713750135735  186.70260557053012  -207.84609690826531
 856    -200  162.5  -195.31461506702425
 857    -187.49889596505523  162.5  -207.84609690826531
 858    -162.61199123695832  200  -186.92960085383515
 859    -162.39110837684859  187.38855226739548  -207.84609690826531
 860    -181.44290705579488  200  -168.56885204786926
 861    -200  182.82501029727587  -164.68156349549525
 862    -185.50873974371927  185.50873974371927  -207.84609690826531
 863    -158.94074637358349  114.53228419262076  -207.84609690826531
 864    -175.77948080969492  134.2435399362665  -207.84609690826531
 865    -118.86147472149327  98.689752465293623  -207.84609690826531
 866    -138.03147690444919  155.15498652291109  -207.84609690826531
 867    -161.77477998443916  169.59734082461921  -190.99269699703555
 868    -141.07364074500939  200  -160.02342307069208
 869    -200  146.78898870326833  -140.50995443304777
 870    -200  127.33526490589649  -100.08129800245717
 871    -200  103.86772165118273  -156.86804371236678
 872    -166.80952775426624  126.18602304309809  -168.6332548379774
 873    -180.19311861562295  165.22403229414559  -154.44896634283569
 874    -154.22022967850501  81.811229743851641  -118.56300460955532
 875    -200  75  -207.84609690826531
 876    -200  54.483015771767306  -178.42691018661358
 877    -173.41712650820841  90.16340811830149  -207.84609690826531
 878    -139.64546705846089  200  -113.29990524510112
 879    -153.91504174035276  155.78054397670815  -70.098518990070829
 880    -169.64946428298887  170.42279410034268  -121.07091940852118
 881    -142.99459637803619  143.89986637541364  -10.839713350492438
 882    -200  200  -25.980762113533164
 883    -200  200  25.980762113533164
 884    -167.79271498897418  200  54.503783945256401
 885    -200  167.28732009829537  49.50924421828686
 886    -170.51671234137362  200  3.4791323043659941
 887    -25  200  -207.84609690826531
 888    -21.435563530455227  147.46175536473541  -155.64357083984282
 889    -22.101336877984835  37.581377755941617  -207.84609690826531
 890    -4.0176898113636987  200  -177.90069656015376
 891    25  200  -207.84609690826531
 892    68.688515370782653  101.91919165547301  -121.67285414241783
 893    82.206605712676094  200  -67.173210503522085
 894    109.92718834920831  104.40756150364611  -75.71356040783688
 895    88.560947199990949  137.33811259500629  -16.263659434852229
 896    28.455845107277479  200  -67.663611897399051
 897    -54.911593375731243  200  -46.48390967079937
 898    -37.128672652683534  200  -96.085129179650082
 899    -94.831038909529809  143.72929473287482  -109.61644006333778
 900    -55.398768758494974  102.11477060003361  -45.40854937103024
 901    -200  25  -207.84609690826531
 902    -200  -23.02390304601747  -171.37776403227227
 903    -147.33896642281974  11.383471273502661  -158.98721217740433
 904    -200  83.044176979342183  -52.951668865959988
 905    -94.643279916761983  44.827566019762173  -207.84609690826531
 906    -85.127896125056225  24.627374014732229  -80.760271201084947
 907    -55.306414410764411  -5.0789123349486331  -150.30490562975996
 908    -47.395985054591357  83.293472358090298  -133.96971853021699
 909    -51.712876921072592  -10.466706650394869  13.413491615590036
 910    -99.064299604286191  -13.693104205643976  63.930067021630897
 911    -133.83325204083206  200  52.992336333124506
 912    -200  133.94520696223356  50.679063277192029
 913    -153.35319763585488  85.404868232424292  27.460274974929728
 914    42.699065940928278  -143.52901795720362  87.221651679307271
 915    -14.412266440513157  -141.25941054826814  43.355223935866356
 916    18.13009657758678  -86.101151618008515  176.15655068421231
 917    125  -200  207.84609690826531
 918    106.90355430429712  -177.7632641470085  207.84609690826531
 919    68.49456213300914  -200  180.48773009799507
 920    67.730451344092913  -172.89008996205021  207.84609690826531
 921    81.863655341997998  -144.12227044653082  207.84609690826531
 922    55.839300999261155  -123.72298430195823  176.15655068421231
 923    112.09188369700237  -164.0469529933865  169.83569053176919
 924    -25  -200  207.84609690826531
 925    -54.494069182605557  -200  178.67979914813154
 926    -2.3505167696396936  -171.86235828999193  207.84609690826531
 927    -2.5174619511793708  -200  167.67906874239983
 928    -6.3692973511501521  -137.50178757696759  207.84609690826531
 929    -31.203439473294502  -156.3487690535492  122.7170881838956
 930    27.271753371389345  -200  140.13187134512663
 931    43.908133903227032  -200  183.79747835935871
 932    22.526195726878068  -167.27369026726063  179.52294837634133
 933    -51.39853189167161  -76.874446183583927  207.84609690826531
 934    -95.439473358154231  -165.50518001207368  161.57812318077026
 935    -87.5  -200  207.84609690826531
 936    -36.240978821278965  -170.66630217557406  182.05016215647049
 937    -47.152769641484156  -137.29375768700672  207.84609690826531
 938    -12.896665700613809  -120.86912998957061  168.81746195617731
 939    -73.428138270295136  -109.40420272993744  176.48405947200024
 940    -175  -200  207.84609690826531
 941    -180.14277776877478  -200  168.87495373796557
 942    -200  -182.89405192908259  168.87495373796557
 943    -132.19396992444339  -159.9596716057867  120.34348261211369
 944    -200  -124.21604000713538  178.11121965051586
 945    -174.23032954903815  -125  207.84609690826531
 946    -134.2382380682576  -200  153.88028613103677
 947    -125  -200  207.84609690826531
 948    -141.74167628780859  -156.7780605542967  184.81161786262859
 949    -109.08344183179111  -200  189.07801688678504
 950    -106.39662296960368  -180.33584241523911  207.84609690826531
 951    -121.02780032467533  -77.373342803030283  207.84609690826531
 952    -139.72762896924954  -112.37508472415011  175.32654103364146
 953    -86.293694048850682  -57.413679994583319  176.64937830156464
 954    -151.48760249132764  -72.296709108588246  182.96940209250724
 955    -178.03875811688312  -46.78819444444445  207.84609690826531
 956    -200  -50  182.8233513502025
 957    -200  -75  207.84609690826531
 958    -200  -99.833833635660568  182.98257907705218
 959    -178.2205902277166  -91.526146528864203  207.84609690826531
 960    -169.37294020167735  89.337503342353102  207.84609690826531
 961    -200  110.01021828975604  168.51995329637606
 962    -131.90001524795431  32.567447357101351  207.84609690826531
 963    -169.43417600502659  34.502833658899014  207.84609690826531
 964    -200  48.169275878104543  177.21714497663527
 965    -145.48459656692174  -4.1946802702960184  106.55165365332401
 966    -129.01785714285714  -23.958333333333329  207.84609690826531
 967    -112.79394291403193  6.2023423356867937  163.97980571034458
 968    -133.8916704606242  -54.818919352428516  137.54043797535834
 969    -186.9047619047619  -12.500000000000016  207.84609690826531
 970    -200  1.8746969995813834  181.02693639605764
 971    -200  -12.5  194.80138669768792
 972    -171.31587821420035  -12.137467821149738  179.15212042258517
 973    -200  44.202903118463666  141.61869449797831
 974    -200  -173.18376351034578  46.005615308107778
 975    -159.315748511159  -110.01409869602564  127.98956922448326
 976    -169.35262614691831  -133.95332626951668  97.563407974311815
 977    -170.53995720159796  -200  71.205766864402108
 978    -200  -176.0650958828148  106.03435720963908
 979    -179.98899728701471  -200  92.319629608100669
 980    -200  -170.87058909677151  75.174634809915034
 981    -200  -155.41101516764436  145.69245049920548
 982    -174.02179870867914  -200  147.81986585198936
 983    -64.321964216948942  -200  131.35415828334365
 984    -111.20715252015545  -93.359389615209352  85.145051432920638
 985    -97.175048240567961  -60.230820364086561  111.9489398746443
 986    -141.36147819395651  -200  81.857012855563525
 987    -164.37309897383744  -74.665756299639071  58.799204602418087
 988    -104.03515372777326  -172.3160359537969  -25.055071503779054
 989    -172.3805515582726  -200  13.627448346005924
 990    -200  -200  -25.980762113533164
 991    -200  -128.71580557999786  -39.614358583883828
 992    -200  -88.773963364672312  -12.608127601377085
 993    -172.4123244939843  -154.09406962214911  -22.665860171928117
 994    -180.82249942316508  -200  -40.530852359106277
 995    -200  -183.10806981909101  -38.971143170299747
 996    -200  -171.29474178186499  -65.568571396480763
 997    87.123275584682233  -200  133.41041404704129
 998    100.23497649189979  -152.52503759798617  97.880820241111323
 999    155.15498652291106  -137.82448216410481  207.84609690826531
1000    200  -109.72434533989141  151.7218517916632
1001    184.51201043629536  -200  145.46473098809997
1002    200  -200  142.89419162443241
1003    200  -186.05503344740148  169.56504471691821
1004    200  -200  168.87495373796557
1005    187.5  -200  207.84609690826531
1006    137.5  -200  207.84609690826531
1007    164.35867822590049  -187.52754035795471  207.84609690826531
1008    162.5  -200  207.84609690826531
1009    187.73610941543754  -167.8976319706189  207.84609690826531
1010    200  -166.53796389796139  193.54097162503257
1011    180.82840769583166  -137.80797876962362  170.24859235375007
1012    185.72814724139857  -138.53662054060351  207.84609690826531
1013    200  -137.5  207.84609690826531
1014    171.17133552532519  -164.88864115242603  194.4229715894258
1015    183.49804482537525  -161.72105999056038  162.34141595072825
1016    140.10309503297424  -156.96040330764171  184.68220186614192
1017    171.50761238054429  -186.51947616922197  172.589137598788
1018    144.21244621151948  -181.07297545829437  174.92637652492365
1019    179.52557207770712  -104.86513238499334  207.84609690826531
1020    200  -112.5  195.28086762144181
1021    132.67058851423718  -100.4693376171042  85.592982669806545
1022    200  -62.085329849266415  129.93915464431512
1023    164.67666514063978  -116.77282598898506  133.93614596978236
1024    155.15498652291106  -110.56369211502613  184.46790977470548
1025    113.41568186259263  -99.928136924965941  207.84609690826531
1026    111.95903574649941  -77.963328013737595  121.06492912862413
1027    119.29455364745844  -70.316407209449551  207.84609690826531
1028    92.033692716126367  -62.669975789869127  178.26604366123351
1029    96.555672921278813  -0.50234632392247813  163.72691953478872
1030    166.21857559688991  26.856611324714425  170.13584468877301
1031    145.86398043262574  -0.19598989151305801  207.84609690826531
1032    129.03284785225878  25.628597913441293  207.84609690826531
1033    200  -11.117314816628941  151.02993872849723
1034    132.82185783284993  -29.335956136982329  207.84609690826531
1035    161.81395006770069  -42.118681520070204  154.45212185735423
1036    174.54253680882846  -63.027295684944093  207.84609690826531
1037    200  -36.923770985413697  190.78352731762075
1038    184.5297056982393  -37.5  207.84609690826531
1039    169.26199979365094  -200  -80.180612952881361
1040    176.60006015601195  -200  -109.78756384066878
1041    200  -110.71956481651833  -42.891714565345254
1042    170.86038250287839  -200  -28.915063347276483
1043    200  -200  -25.980762113533164
1044    200  -167.49597429605359  6.6446403523116437
1045    145.36165226001918  -200  127.71205129006708
1046    174.90922648026009  -200  107.03374347043393
1047    200  -183.65957465455449  113.58448085020977
1048    200  -130.35493404806533  56.317673768592456
1049    121.17517928048755  -200  75.685646665228461
1050    130.83616603579293  -172.78743564108558  98.801171534550363
1051    148.33384822035913  -200  76.807672161660349
1052    175.55375786839573  -169.37832439199056  80.690036291308814
1053    200  -200  64.951905283832915
1054    200  -175.2867373565422  75.862874976096464
1055    173.18376351034578  -200  47.743624528154058
1056    163.16044787902212  -47.510021873192301  -8.5105803950746868
1057    200  -100.88958722242634  21.858764348563785
1058    166.41119190757391  -140.84349606760969  -6.8563401864430453
1059    72.11511661953999  -200  62.037380264155502
1060    59.171671703918584  -200  -4.696697293381078
1061    79.381486042108421  -170.52650965874599  36.252436724574167
1062    81.968827459635776  -96.621269366238977  -9.8841395146915705
1063    27.077236316239173  -165.86775356941109  -15.281498069274562
1064    107.92874766094833  -165.79365945930439  -27.493942215772684
1065    124.36068714589268  -200  -2.9411833507218912
1066    123.54189730293429  -170.52650965874599  46.355255414866676
1067    200  -47.32494164340288  78.006951482806087
1068    162.6548759323226  -69.562817556805967  41.63344393905804
1069    144.48201581769663  -19.569110975332656  113.94174546644865
1070    78.130192791660392  21.257921804112463  107.51345276551537
1071    165.87597410823852  -12.699316908249301  57.869031530859971
1072    74.969278064575192  -36.682753085196794  -67.269583709857329
1073    5.2833004617849326  6.2837747132537727  -57.02432110865746
1074    84.530246674814691  -42.971787691063355  65.159156441334602
1075    119.34405696348315  -72.233220613307822  -207.84609690826531
1076    200  -43.590063783683071  -111.37630700375846
1077    200  -84.365861597591191  -126.14264498879055
1078    163.46482583920454  -76.05933248039338  -174.82403113018844
1079    42.955071318492386  200  189.57410373161147
1080    42.902526286791613  181.74780499464265  207.84609690826531
1081    75  200  207.84609690826531
1082    116.29531648950913  186.7026055705301  207.84609690826531
1083    112.5  200  207.84609690826531
1084    119.21383785877671  200  194.52464311202189
1085    109.38999159344999  200  162.70501249740073
1086    113.37883057442406  172.32221336853107  180.17022278483674
1087    200  176.5219036713892  184.29203773397691
1088    200  200  194.85571585149873
1089    200  187.5  207.84609690826531
1090    137.57887145375977  178.16170339016102  185.95570584551595
1091    200  138.36940985709467  159.43327163672981
1092    176.53602711354307  141.07595153407544  207.84609690826531
1093    200  143.74921383371952  184.85501671823579
1094    200  104.99859178361609  187.68320922521659
1095    200  65.472335605943996  173.05880349717194
1096    173.66443811938393  50.864932431648242  207.84609690826531
1097    200  88.073834276891631  194.18842951004217
1098    181.51199257236223  93.038321149102885  207.84609690826531
1099    163.68215797685929  90.649909038254819  174.65649671995789
1100    174.3914939793008  0.047289518843008332  207.84609690826531
1101    200  12.5  194.83293182265206
1102    200  -16.036597331698125  190.83684676925023
1103    184.5297056982393  -15.20213259110467  207.84609690826531
1104    168.7098614279453  -11.840574837675822  176.47829119005635
1105    165.48326740354526  132.93776076447708  16.490789772754173
1106    157.72583870435852  200  -41.17448826332749
1107    200  200  -25.980762113533164
1108    119.63381939837652  200  24.971699329484583
1109    200  170.62892078372622  -1.7265001102762838
1110    200  177.27717427394535  39.741282077791936
1111    184.78871841843937  200  61.31658678164856
1112    200  200  64.951905283832915
1113    184.93930744970515  200  90.932667397366075
1114    200  183.12703829870904  90.932667397366075
1115    200  177.60585684542178  110.46675177523936
1116    180.89896355945882  200  110.84259968076074
1117    128.80326696454782  167.24474936167999  130.50146315665123
1118    200  146.69800884990931  117.07828450425811
1119    159.78801803849214  161.19590130351386  146.85061990130137
1120    186.93522432595122  200  139.46861853259941
1121    200  200  142.89419162443241
1122    200  155.88827755972255  146.05043629687228
1123    -162.8525184267634  90.706647242736125  130.82853744712455
1124    -162.8525184267634  105.00258240450509  81.212710712089631
1125    -200  54.165754667000762  67.111968001440673
1126    24.404761904761902  148.21428571428569  207.84609690826531
1127    9.3749999999999751  118.60119047619047  207.84609690826531
1128    9.5564328381541479  200  131.41337178869836
1129    -48.628801593940125  200  175.11339335190047
1130    -17.17522539598615  159.40925255783714  142.41906988696613
1131    -25  200  207.84609690826531
1132    12.499999999999998  186.9047619047619  207.84609690826531
1133    0.62532385602261442  200  183.42256345028767
1134    11.9047619047619  161.3095238095238  184.80500011765261
1135    200  97.523338020450467  60.13864987900665
1136    200  44.783807918627176  48.281303452978371
1137    118.14226757888963  16.436690885749996  9.6289650615393825
1138    170.53978516875338  124.65614499160921  59.571305595692955
1139    161.5788086022522  179.46122680965166  61.31658678164856
1140    173.30004542237316  141.16218714146518  93.152445451437885
1141    142.61865597665354  170.92196877699178  93.207075911155897
1142    -53.971193660766829  101.31823752659865  207.84609690826531
1143    -70.897937510634435  91.426173083069457  95.995059706204685
1144    -71.923770386149585  33.684871268062565  171.733586123702
1145    -35.486111111111143  74.533730158730165  207.84609690826531
1146    16.055728020749157  40.11830337713274  207.84609690826531
1147    5.6350131425690613  96.274189939084948  174.44335860828494
1148    -6.1724458901818693  25.166689385715948  166.81135789478844
1149    10.476505244092996  200  -30.096430389850013
1150    24.791474934793321  104.4135320562315  -76.732516257724839
1151    40.001226984827085  154.07451861000757  20.016034963382744
1152    49.163044616549257  77.902723952039764  -15.414578403325001
1153    -95.74549122222021  152.2643506466157  23.340521437114262
1154    -98.988669813610557  153.09760282186977  79.540275894899949
1155    -51.000468873571734  158.30282776597141  101.38589658013952
1156    -41.041447500932428  200  54.587473613242686
1157    -32.158763314061673  151.83648725919232  4.0276858307309524
1158    86.775921774034728  171.95192229734874  110.85502249451106
1159    68.97210805339985  109.07771069705609  124.48439040694032
1160    -2.3825149282945688  94.392460822515105  104.67443878534885
1161    49.684588559397149  200  80.395527302862362
1162    63.965781294823017  200  135.70401829499869
1163    37.400511188596305  171.25706009637446  135.33840616708318
1164    134.93512657001341  115.52117491946703  207.84609690826531
1165    164.90707290133321  121.0188318416545  182.3901460498808
1166    91.731633071523945  164.08497260595195  57.546092927503395
1167    138.83093670574101  95.719216525098943  61.386705179694772
1168    86.208687199586606  132.37036094572673  94.811238274494571
1169    138.13144569934769  94.287149212016544  111.51902127571995
1170    137.90562318982168  142.20470213744065  89.529570195342288
1171    175.82219296763449  200  168.36088284471353
1172    161.60035597295209  200  182.29817029841527
1173    161.48439912147785  174.57557755627337  207.84609690826531
1174    149.44728095749426  147.59248231113597  174.74399497054577
1175    106.75633272874495  120.65840409020507  145.08433127967547
1176    75.233260352595977  171.4776215559618  179.37239647157952
1177    96.794232038863967  123.57469638097609  207.84609690826531
1178    200  84.045258290308979  140.29218794263193
1179    122.98618854807023  17.118813335117267  123.99039357639671
1180    178.57422579760438  93.065434075646806  88.446040718346353
1181    200  68.962985012207312  110.34512923613262
1182    158.98340609455462  40.135647013214118  83.74439018516145
1183    200  121.04655162061394  113.69341275847916
1184    180.73780112789834  118.46863562460611  146.83424514721176
1185    142.05605266585704  113.16772184934996  137.50474923418764
1186    155.33933037260644  137.0754722652986  126.40986101681487
1187    118.84176868932975  70.076179869427534  207.84609690826531
1188    107.49662378053327  101.10512548259858  177.29213253083989
1189    136.4402839077251  95.917591758591044  207.84609690826531
1190    89.928473133009646  63.244956246242602  178.52771559010793
1191    137.7391165675528  51.244792831426494  140.32026959806126
1192    58.928571428571409  91.071428571428555  182.18407129535342
1193    60.345640231067065  132.59103743903654  171.75267810031204
1194    30.718425883892564  -4.5965447634580272  173.76280165470877
1195    72.675015541593751  -55.894073576196689  120.99339820154597
1196    45.511225208399303  24.004255960261133  17.070663010392444
1197    -22.197953412073037  63.427063431847913  58.919733415314809
1198    -6.1478634239040275  11.54463112850728  97.409395912877613
1199    -200  175  207.84609690826531
1200    -200  135.91415777172054  182.17425986373752
1201    -174.97129924378356  138.25356703246629  207.84609690826531
1202    -175  200  207.84609690826531
1203    -115.89387036822687  200  170.37365328783696
1204    -125  200  207.84609690826531
1205    -174.16290004691422  200  182.02208543796036
1206    -200  183.45924172769082  168.87495373796557
1207    -141.07399609736058  175.99682249214959  207.84609690826531
1208    -138.79187215579103  200  183.79001445419115
1209    -175.22091551539378  200  143.84813003542618
1210    -91.259789366754674  200  129.97696108113831
1211    -90.897616491203394  135.00135121466914  207.84609690826531
1212    -76.299239129151758  161.5191306832501  171.22666987370411
1213    -128.73909045174582  127.98120266091033  177.74458540499069
1214    -181.71114936719974  200  112.84946561864656
1215    -200  179.70704873710713  112.58490394229904
1216    -200  200  90.932667397366075
1217    -186.66181119576271  200  99.793883119197503
1218    -200  144.51922013167336  107.98319152830197
1219    -161.11863411098065  161.9150613558956  72.514154404199388
1220    -137.82335888941546  200  106.39569274804177
1221    -167.09233704779837  144.76826753637496  148.09236703430528
1222    -122.8055472060975  -200  30.17544651399669
1223    -98.72357970710452  -128.06992642805443  101.42484455760589
1224    -94.914765772148499  -200  96.30303290040186
1225    -62.214569114897436  -200  72.163977105112508
1226    -72.606009810227974  -166.4792635318409  48.005750777174725
1227    -200  -123.43404597619573  23.918444809517844
1228    -167.80464686898918  -127.19512308703688  56.321372499166927
1229    -115.48549699382028  -105.6900844071896  -14.38376878228382
1230    -122.39327249445049  -128.52801418420862  54.576202881865484
1231    -162.76724749567819  -160.1108916378233  33.407311566297558
1232    -53.871706781069875  -15.390103119660745  162.59230019953685
1233    -200  -52.966340537213412  90.810580560527484
1234    -200  -27.539176767831346  133.77888621579831
1235    -39.658051270943844  -153.55851982668264  -118.6623473194992
1236    -66.206483967774361  -200  -78.910789191686106
1237    -33.045463436772771  -138.31802700392677  -64.249766696456589
1238    -123.61939791521095  -32.913822708717404  -173.34997839801531
1239    -95.665343247012984  8.6571362787690909  -207.84609690826531
1240    -95.388821974467433  -63.319358301111983  -128.72400047652539
1241    -27.457325052337069  -200  -27.132510597268038
1242    -58.715706983822379  -96.716069995754253  41.378159639485418
1243    -200  35.105691718956045  -66.808484011669563
1244    -200  32.991592066392514  -4.0906035971978092
1245    -117.01910799415691  -150.2260725233339  -207.84609690826531
1246    -122.47101374655149  -200  -157.5348887979699
1247    -135.94426991171042  -170.82453049766445  -161.22932501026659
1248    -141.3851299332913  -153.69062764246627  -207.84609690826531
1249    -112.1697940065396  -200  -193.80303832684189
1250    -112.5  -184.78870267024516  -207.84609690826531
1251    -129.20738955416971  -185.98476008063017  -207.84609690826531
1252    -130.7012052517147  -200  -194.90748137595654
1253    -156.16525363059418  -183.0687215682083  -180.4337625537911
1254    -200  -185.24659421769906  -131.57883963105797
1255    -187.61955545937323  -200  -134.60692066893742
1256    -200  -118.67243355690195  -189.02330275922492
1257    -200  -75  -207.84609690826531
1258    -173.8095238095238  -62.5  -207.84609690826531
1259    -161.25363637948143  -78.886528799004239  -170.76590085625639
1260    -160.00461550372199  -112.28552503037278  -207.84609690826531
1261    -170.05293763197614  -110.51920241233996  -147.95033202789523
1262    -118.11340367218224  -118.32783609451756  -182.62572303631529
1263    -145.48355741757723  -145.55756632025151  -179.56575896375151
1264    -200  -137.5  -207.84609690826531
1265    -179.72482857669189  -171.7292139926472  -153.81517229538071
1266    -182.14594894718056  -152.91917970176308  -192.27339085920718
1267    -200  -139.02929891421712  -167.22988770124255
1268    -178.78546938262804  -177.16088781887484  -174.39060895146619
1269    -200  -167.84443735033835  -196.30243399157501
1270    -172.91074726331374  -187.18334900148056  -195.56849091654243
1271    -23.083587392798815  -200  -149.15651848091085
1272    -18.912966495812004  -118.00918962856215  -207.84609690826531
1273    -62.5  -200  -207.84609690826531
1274    -55.903750715046293  -200  -190.34492444608281
1275    -90.280940080806971  -179.27165412773522  -207.84609690826531
1276    -63.185798227886295  -173.74787479989553  -142.59141652949484
1277    -61.107377604870763  -200  -168.79357415817626
1278    -85.30136116458857  -200  -170.65622119559532
1279    -65.306461252937993  -178.77673858662561  -185.86106886973184
1280    -109.2255933781048  -177.17473252450324  -172.44347576106622
1281    -87.854900529971744  -134.68014248411242  -180.80702869819896
1282    -72.024492309937898  -151.75552759997018  -207.84609690826531
1283    -98.637676126131296  -57.004908555827683  -207.84609690826531
1284    -129.35089739839171  -104.54063095877207  -207.84609690826531
1285    -145.04032302743215  -103.38354934873703  -83.905179843234265
1286    -200  -66.14239092096696  -126.16062644629029
1287    -200  -51.610793202017597  -80.696996338413584
1288    -134.82510031664214  -24.877583100665731  -78.368355064782179
1289    -81.252111718314211  -104.59718751982822  -207.84609690826531
1290    -104.44531912374947  -94.936631188123414  -207.84609690826531
1291    -144.59864057607805  -172.98110286588786  -120.29192836499193
1292    -200  -172.06918823160873  -106.4320867310683
1293    -168.48500057333098  -200  -129.68525480952809
1294    -200  -200  -116.91342951089925
1295    -176.42698784242765  -200  -106.9542122940631
1296    -200  -118.06231122484746  -95.090903436448031
1297    -200  -153.23139878252931  -98.441048867902339
1298    -165.40693641007459  -174.92001355307102  -76.252798854441224
1299    -200  -151.49523404821673  -138.70421923722824
1300    -177.97901772830051  -153.5101755380561  -120.50614034697576
1301    -200  -186.94458965003528  -84.437476868982785
1302    -187.4028226232096  -200  -84.437476868982785
1303    -135.07991083303111  -128.33620783211717  -120.25540523642492
1304    -90.898290688519666  -121.31261803062363  -142.80112298336704
1305    -98.344509431176505  -155.61309153881606  -157.48094591599377
1306    -99.043595778903622  -200  -129.69312215723636
1307    -113.08692375940781  -178.59069127030097  -100.7648037312742
1308    -116.86571079793094  -200  -78.466199507980946
1309    -69.627322362849398  -134.61343884968784  -53.202136909790681
1310    -93.241504165158901  -140.7061370837456  -92.624043570984483
1311    -151.97084727982752  -27.911326955380499  16.628629156197452
1312    -200  -20.20299673161081  -18.42496622321223
1313    -74.925085711255662  -47.666649777317815  10.991699788309646
1314    -26.200168890219196  -59.644401611344115  -30.521637634317852
1315    -53.568036610025935  -97.420420347625424  -5.4861274464480978
1316    -69.521366120666485  -66.608414254969162  -68.560863988540405
1317    -47.699243841580852  -168.51848234786232  -207.84609690826531
1318    -40.413977429653372  -200  -172.6724841133481
1319    -28.842814757330942  -179.89654609759293  -186.47234956782367
1320    -4.1978463381147506  -138.80082476896726  -158.62115360062671
1321    8.5516140169548152  -200  -179.32809760421333
1322    45.149588677076594  -155.04495885940091  -207.84609690826531
1323    69.44090064579737  -50.609985563608561  3.5292839614218963
1324    17.228088525200416  -18.545011437372374  55.283487785401242
1325    6.3028108082431977  -134.80960702466183  -56.83065638565904
1326    44.827566019762145  -94.643279916761941  -207.84609690826531
1327    88.970890494812821  -37.659937100490552  -207.84609690826531
1328    55.979262990975641  -61.407061463775236  -207.84609690826531
1329    39.14424220700144  -169.27273692253186  -152.4599901847688
1330    85.917344042448377  -156.51049897320817  -97.656382207209646
1331    49.258987172611128  -170.72620494813305  -111.33206278485831
1332    32.392579153801663  -200  -73.398409528743059
1333    71.596541926561713  -200  -57.828071145484174
1334    87.5  -200  -192.73003503267304
1335    87.5  -186.42572353578771  -207.84609690826531
1336    66.822864059905385  -170.06316326359826  -179.6738780560394
1337    19.965109053760653  -109.06219472355248  -129.68531185318037
1338    79.392528090692537  -67.517844157679349  -124.53460727973692
1339    37.726395871102667  -92.316753250179104  -52.385778638448308
1340    -1.5223488506472851  -167.58580988108196  -88.497364136418781
1341    -17.739675655780161  -173.36229070992076  -53.114296517496079
1342    -45.238030066555751  -106.2975264799326  -104.70552815562998
1343    200  -169.33790278136291  -55.874937382666083
1344    126.09081209397796  -200  -88.994744180859755
1345    200  -112.90081458708256  -97.193070611677001
1346    200  -140.73523941343271  -109.32063218492111
1347    158.14486476928323  -160.99360263388357  -122.12292473240791
1348    101.40463993519728  -114.50445097389361  -207.84609690826531
1349    63.33669451405396  -128.25900966748182  -172.11062065444924
1350    110.20339413289864  -147.82370640355873  -207.84609690826531
1351    200  133.13949847496406  -92.41867656930647
1352    161.07994548321642  94.788265700836206  -66.786533859171527
1353    176.6590935976842  200  -153.12416331810812
1354    200  200  -129.90381056766583
1355    157.58913853885204  200  -86.881069191387297
1356    200  169.83556020012833  -79.190794670163527
1357    167.05993744416918  164.34578071989475  -130.59499374255921
1358    200  80.096942359237914  -138.78932214836146
1359    158.62401768344327  110.03267471473501  -167.41398687085575
1360    200  51.759475961726679  -103.58254640220923
1361    169.0353779593604  100.94701220568426  -109.01914474950168
1362    183.89945652173913  112.5  -207.84609690826531
1363    200  112.5  -188.60369624041644
1364    159.75229789072694  71.677101197365573  -207.84609690826531
1365    200  130.41429142005293  -190.64769010891905
1366    200  137.5  -207.84609690826531
1367    186.66903818348334  200  -168.54495802573936
1368    200  186.71333455094265  -168.87495373796557
1369    186.76535766293696  200  -191.49522824025158
1370    162.5  200  -195.29978827766513
1371    162.5  187.48475609756099  -207.84609690826531
1372    200  161.14750692181661  -193.93111732461452
1373    182.78618772632586  157.56047940459899  -207.84609690826531
1374    178.9786296883706  178.01955006227439  -185.65057885796924
1375    120.98721590909091  175.74573863636363  -184.84545765493652
1376    137.5  200  -207.84609690826531
1377    147.15771739738602  200  -192.51421975432277
1378    87.5  200  -207.84609690826531
1379    93.75  187.5  -207.84609690826531
1380    50.274234331256444  200  -176.72628374010972
1381    52.083333333333336  169.79166666666666  -207.84609690826531
1382    89.857411083343152  200  -163.24182646232944
1383    174.6843735294087  5.856176789280152  -207.84609690826531
1384    120.90524427172153  -13.068352628011702  -207.84609690826531
1385    132.40453261965837  30.146423896754747  -132.67660332858046
1386    74.452994538237476  0.85572869048174027  -167.05698200802178
1387    160.68072832395586  -31.33026205036731  -160.82405481434535
1388    20.722443371553766  -27.757989056336665  -207.84609690826531
1389    29.535576009934978  12.062605011322958  -207.84609690826531
1390    4.5238662709726469  -71.09956268683888  -165.46926433614379
1391    163.75842586709746  78.944145096865654  5.0711917703521969
1392    153.10640371581107  -31.605109416722506  -80.362680675382407
1393    200  13.467929556054052  -54.904866025329369
1394    99.919185444831584  47.280464201564335  -45.785380671373716
1395    164.05892848718474  49.003935382725302  -33.632526558517363
1396    69.239931975781047  74.583461611763525  -207.84609690826531
1397    101.999911047391  37.394585323073329  -176.85627816077385
1398    32.812907141878441  71.768840498911857  -171.30618056994703
1399    130.47463603054433  90.581940747125088  -207.84609690826531
1400    118.77442898898965  129.99402812182717  -158.64205370403911
1401    173.20741719299164  152.19701643283264  -171.60611682170372
1402    47.42647058823529  132.53676470588235  -207.84609690826531
1403    82.904453587972824  117.30785193535253  -171.28359552583836
1404    13.457562954547036  110.83553584630137  -207.84609690826531
1405    106.73617011233833  117.29148966298499  -187.87523420167105
1406    42.417998133513393  200  -134.32733774021523
1407    72.009262136321496  170.5493027759897  -100.14363174665242
1408    23.730514034727442  154.41597015548183  -91.107081519616401
1409    80.93208201194642  174.00792728888169  -138.26290281459111
1410    93.75  156.25  -207.84609690826531
1411    128.83890086206895  147.11296695402299  -207.84609690826531
1412    105.39679831063081  200  -123.21698865614125
1413    117.98122563996013  200  -149.37793976564711
1414    147.75968378693727  175.6980722820401  -152.49708248497879
1415    200  -98.322087714651559  -184.23973255975611
1416    111.84320867052749  -169.02510049065054  -176.30145308725395
1417    200  -171.38573141250379  -195.41445093964441
1418    188.21340916805531  -170.3871986404493  -207.84609690826531
1419    183.04466872875861  -138.81103301788164  -207.84609690826531
1420    174.07538264471972  -167.49458749278133  -207.84609690826531
1421    146.545774020842  -175.28305209390265  -183.14896928652277
1422    200  -169.77574352275383  -171.03725609020262
1423    184.91811845733605  -181.46363179438532  -173.21064966942313
1424    184.0953518637856  -154.56641108143626  -178.71700189822653
1425    173.09381090232387  -184.67252922076889  -191.66953417129088
1426    83.21033582126465  -167.51184587527504  -141.26377975945354
1427    126.1595901620757  -174.44306809162811  -145.77647209619195
1428    147.46805067857395  -112.96183198801506  -207.84609690826531
1429    151.91690855903909  -137.12819119786479  -186.72678592938911
1430    125.06457360112744  -131.75076525854405  -161.66768613651109
1431    173.83651060526356  -111.76322729870043  -182.14781796381041
1432    200  -147.03232695410085  -145.46815050091237
1433    162.38819415534002  -113.37585065787033  -134.29817953260053
1434    200  -137.38718257516621  -163.60851739402449
1435    200  -200  -129.90381056766583
1436    182.01874339553001  -200  -150.48035380098997
1437    184.54719329709337  -9.1543696935966814  -207.84609690826531
1438    200  -12.5  -194.03318514884336
1439    200  -36.2432419482681  -194.03318514884336
1440    200  -37.5  -207.84609690826531
1441    200  -63.756758051731893  -194.03318514884336
1442    186.97152685237759  -62.5  -207.84609690826531
1443    -127.29679091662196  168.13583405390517  -142.82093022953418
1444    -53.371865230716757  171.55970134760145  -207.84609690826531
1445    -93.40439609478608  122.37947944619923  -207.84609690826531
1446    -111.69435842460651  155.15498652291109  -207.84609690826531
1447    -74.297740786295819  169.21143500321398  -180.36284145642617
1448    -97.980990667025779  200  -149.08424184648177
1449    -87.5  186.64395353308163  -207.84609690826531
1450    -87.5  200  -194.33915297428589
1451    -114.85322124499517  173.93411471548617  -181.65828939449503
1452    -88.025568371563594  200  -29.302147957850387
1453    -111.1506642692688  200  -93.744607054323097
1454    -200  173.6837857437975  -89.879221465756387
1455    -200  168.40497634311754  -52.599443427033961
1456    -200  200  -142.89419162443241
1457    -200  184.18217371481478  -133.03569664210181
1458    -200  146.09367199075541  -182.05652572746652
1459    -200  186.97509553252831  -181.28893784223374
1460    -200  200  -168.87495373796557
1461    -200  187.41367400456335  -152.47586615165764
1462    -181.16462001531107  179.50970373455144  -188.47587017516119
1463    -180.80478317120151  111.03635999635145  -207.84609690826531
1464    -106.22883181041745  98.29512227439352  -154.4594223193842
1465    -161.77477998443916  169.59734082461924  -207.84609690826531
1466    -149.24408241035292  148.35334861364595  -186.47421115715449
1467    -149.24408241035295  162.61734725316279  -207.84609690826531
1468    -154.07648752550091  185.47409272431219  -192.3425791093546
1469    -176.20559708113302  150.62536125871875  -190.52983023650123
1470    -156.96450522275225  200  -147.74454505836934
1471    -200  142.33036494635181  -117.23807027475802
1472    -160.73813837348908  144.05553169247324  -157.16548137988238
1473    -142.47201626025867  97.577152873144513  -177.37478667446734
1474    -200  128.67677711726773  -157.47477532307366
1475    -200  169.47273550527035  -159.60514730985594
1476    -180.84870638638182  181.84761629460718  -142.30008994527515
1477    -200  162.26824533720909  -138.88292987845267
1478    -171.50204987393488  182.78954439821146  -161.89625412182522
1479    -200  81.811229743851641  -118.56300460955532
1480    -170.40003884011313  71.752589029127606  -82.643946264811348
1481    -200  43.98310437647789  -133.46914484412309
1482    -164.89142231841743  119.13898476267487  -114.93430651719883
1483    -200  41.251466074667192  -191.46179611115926
1484    -183.64110988453018  37.5  -207.84609690826531
1485    -200  85.192204552450974  -179.95511603869113
1486    -173.5107608399021  63.523872424716416  -207.84609690826531
1487    -150.73475069372861  200  -98.625341431221102
1488    -162.78100093602944  200  -79.371467460518843
1489    -125.42381515681694  173.28910088756967  -71.539107534761769
1490    -171.74006797368151  122.39503119079076  -74.929169949416945
1491    -153.12336248335359  151.7591457033156  -127.72813339385665
1492    -159.84009020994108  200  -113.58259983089712
1493    -160.63731199329129  172.47775411290343  -93.244786292648598
1494    -175.80012274929425  186.39097483862989  -124.63048129720237
1495    -159.8441395678289  159.37875673515885  23.79430180005032
1496    -200  131.37265073209738  -10.952676215162757
1497    -164.64027789277037  163.40270504585283  -34.767278213375242
1498    -120.32831272822234  113.77214595838775  -33.46983193456299
1499    -162.37698310588709  104.22613061750553  -17.649908741640047
1500    -182.77063501556623  200  38.971143170299747
1501    -200  184.52555701503042  38.971143170299747
1502    -184.82140846469434  200  64.951905283832915
1503    -200  182.57792986447856  64.951905283832915
1504    -183.4223800244074  200  -13.088248945835408
1505    -200  181.02757083642612  -12.990381056766582
1506    -146.83111525209475  200  -8.5274254526362547
1507    -2.8973305036833636  149.2482840871796  -207.84609690826531
1508    -51.649222004017076  200  -126.90093235871039
1509    10.774540495612563  168.38805176113652  -136.27212961111789
1510    -0.52483740856430816  174.57140225849412  -207.84609690826531
1511    -12.5  200  -194.28096539056034
1512    -14.736321600501849  200  -157.04518150427882
1513    -19.202568490636416  171.74316271980993  -176.53207281010498
1514    107.33091325590919  70.553611518232842  -113.46157680765825
1515    65.542625934495575  64.646658112124499  -117.2090397260055
1516    51.852290770396394  131.18712564633475  -113.20088532561508
1517    113.27769932911366  158.50587043086369  -65.555679284961926
1518    77.105363597427015  103.77038397596942  -87.776939349478212
1519    101.82110879692718  131.47095010044063  -97.413323137725726
1520    51.711682570111549  152.91378697646488  -42.28234096493884
1521    81.887079601432902  200  -14.317822289981912
1522    -80.416358983370898  200  -58.716920352344673
1523    -32.857841154592563  151.98954704206363  -54.226574984245012
1524    -66.73706682770424  128.96712753087357  -147.6981249331715
1525    -127.84576731410453  139.67067928191176  -91.974365193598899
1526    -70.690219395856531  158.64456341722118  -77.039168945899874
1527    -200  -0.30889057011705517  -182.53899434030924
1528    -200  -25  -207.84609690826531
1529    -169.56214252231268  -37.00824964162134  -144.58778645998788
1530    -152.4419989400285  16.254547767201924  -207.84609690826531
1531    -136.9369372620213  49.668614353833732  -175.48355389773019
1532    -173.75723362514836  36.895081488706936  -159.68560214932
1533    -61.407061463775285  55.979262990975641  -207.84609690826531
1534    -119.16745748756463  48.640549572366538  -107.51380188484544
1535    -94.70876764773881  68.782818616565862  -54.388954778454533
1536    -72.994606390904309  -14.080684945566187  -106.53386038363638
1537    -64.067131376556361  28.499624731757009  -120.89402414669007
1538    -14.065311887835279  -21.770833636508904  -120.23278504197751
1539    -8.5346512210029388  13.852516804720299  -159.25262050157554
1540    -43.654008958838659  -26.65362785566596  -207.84609690826531
1541    -19.35843237043122  114.62109645174397  -129.01108996791004
1542    -54.964572806515136  96.937155534942832  -90.911099453997252
1543    -59.477567480131107  -11.478878802599604  -43.762643334932775
1544    -39.321533225993349  -32.727852165151184  64.13433119549056
1545    -89.37311410940778  3.2441471713313064  26.542182178966783
1546    -93.315531289956667  39.742175978587078  80.849887836478842
1547    -112.54348001080959  93.940803196703683  53.59373613822418
1548    -200  83.719873349772229  27.305059951774183
1549    -136.78139609477452  117.90031736776255  16.35203802150555
1550    -170.52310302970341  117.26863195689398  35.557223108357839
1551    -128.98235439638415  52.716574344194562  -9.7274464854855331
1552    53.119111136782145  -104.48547781121741  43.200104798132138
1553    46.756564108591931  -142.64992978744905  128.65521541374034
1554    -2.1132271892566408  -88.890802370342897  92.804669161993814
1555    -5.5526433973736449  -99.371277066623577  16.270818397730601
1556    -37.351070607952948  -159.32427702702219  10.268380925917882
1557    -14.412266440513161  -200  43.35522393586637
1558    21.270093715135499  -200  46.315507293649603
1559    18.130096577586777  -86.101151618008515  207.84609690826531
1560    -1.405497799358443  -41.742020581178693  171.19354875244156
1561    53.184562667705762  -74.082477529967719  207.84609690826531
1562    120.04304458406757  -185.55212366913292  207.84609690826531
1563    112.5  -200  192.47005825199693
1564    75.723437081289333  -176.90058261425293  162.21937079793591
1565    86.436621940015044  -182.40363546217819  207.84609690826531
1566    87.5  -200  190.42113675524496
1567    57.677135850717065  -200  193.10547776566037
1568    62.5  -200  207.84609690826531
1569    52.987036803154133  -182.60058582991073  207.84609690826531
1570    61.451400262939586  -121.79883598298277  207.84609690826531
1571    22.644957146507146  -119.28511175802593  167.28141829697097
1572    89.236285447966083  -122.52182134921981  174.56013053272312
1573    70.326865591452162  -147.27248140453844  182.19608723060128
1574    114.28386206078494  -200  162.79375345445851
1575    116.41083959808122  -164.26971238822392  207.84609690826531
1576    130.47230753937333  -148.54645157427004  150.16475418260382
1577    -69.928044253966689  -180.92591796200227  207.84609690826531
1578    -71.35199851832175  -200  188.6192001499893
1579    -6.8854095764949399  -200  188.11523399063168
1580    -12.5  -186.87720707984062  207.84609690826531
1581    -19.68987580861608  -200  107.67612579715995
1582    -2.4258404801497768  -154.72644494128951  86.222489454902814
1583    -61.100032713633212  -141.51967980025307  138.17524433360316
1584    -61.169105825952002  -159.90359240434466  94.427164271028175
1585    40.596614710611853  -200  99.20481082869577
1586    11.632045574027183  -178.7584958777355  153.09972751865632
1587    18.847840908223507  -178.61853171367761  207.84609690826531
1588    -0.87367386195627006  -154.2743263218907  186.53458615453602
1589    39.555651619507998  -200  163.90774786002365
1590    35.595666430067581  -131.09198551302208  207.84609690826531
1591    -17.015849862380303  -81.64878714584512  207.84609690826531
1592    -99.482722990695237  -200  147.66758337927681
1593    -106.06791781155408  -146.60543102996337  207.84609690826531
1594    -111.7346494683962  -130.77411982395947  147.42340085127705
1595    -71.865863859590618  -162.18080826375459  182.25765186732878
1596    -34.041909000056712  -178.87243125756538  207.84609690826531
1597    -20.62222433105368  -154.52009296048593  155.66458945903452
1598    -54.315928737333451  -184.56199584184421  207.84609690826531
1599    -39.3103082830361  -200  191.26960134073332
1600    -26.749852855669342  -135.20585036478826  207.84609690826531
1601    -43.296669919568259  -154.70857090654599  207.84609690826531
1602    -76.018450911919345  -113.22915711916983  207.84609690826531
1603    -63.986790793195709  -128.1416926792362  207.84609690826531
1604    -42.148439839260654  -91.744877174838507  176.48405947200027
1605    -162.56435152403063  -200  186.38014056060652
1606    -168.53061249582234  -169.62719098592845  166.30056625858919
1607    -200  -200  168.87495373796557
1608    -200  -175  207.84609690826531
1609    -109.24031429188831  -170.57263597479314  100.07280128849709
1610    -137.97732524822158  -200  109.35492473318945
1611    -165.62946111938814  -164.95763663054316  130.78227120570651
1612    -200  -125  207.84609690826531
1613    -200  -145.81542578682556  185.42821842349218
1614    -178.08969350182738  -146.80333681447553  207.84609690826531
1615    -126.0052703669698  -168.69638052377698  151.02299346141098
1616    -141.74167628780859  -156.7780605542967  207.84609690826531
1617    -117.61169814921712  -172.66417495974764  179.47385952057689
1618    -92.579157535950714  -185.9693047903275  207.84609690826531
1619    -93.75  -200  195.14232171104098
1620    -112.5  -200  207.84609690826531
1621    -120.30958137607537  -185.80540570160281  207.84609690826531
1622    -132.78533285472656  -200  185.11044528273476
1623    -120.95734126984127  -49.379960317460316  207.84609690826531
1624    -110.80113059248725  -110.71367404112215  207.84609690826531
1625    -151.56837638376035  -118.07938639829401  207.84609690826531
1626    -167.76268662504702  -129.13914702402244  176.08740958600438
1627    -66.3743593014281  -45.926376422469168  207.84609690826531
1628    -97.19380373677248  -60.869812334656075  207.84609690826531
1629    -93.738972305664674  -86.852220238711539  179.40343909623994
1630    -87.691487591477539  -22.052223348959082  176.64937830156464
1631    -200  -75.331446562602167  156.41632463763563
1632    -151.48760249132766  -72.296709108588246  207.84609690826531
1633    -131.53471160096404  -98.834795505964706  207.84609690826531
1634    -186.90476190476193  -33.762685235765133  207.84609690826531
1635    -200  -36.966177326153371  194.80138669768792
1636    -163.55610349292257  -55.281572849997815  207.84609690826531
1637    -200  -63.033822673846622  194.80138669768792
1638    -200  -62.5  207.84609690826531
1639    -176.06812298829746  -61.943421420882331  169.24530370807918
1640    -183.89129926739719  -109.17688193212983  207.84609690826531
1641    -200  -112.5  195.33024348926804
1642    -200  -86.803232854421282  194.80138669768792
1643    -200  -87.5  207.84609690826531
1644    -165.16680069205046  -82.136360716339382  207.84609690826531
1645    -200  84.500682317782946  182.96375441889933
1646    -178.74826873324773  111.72569942170709  207.84609690826531
1647    -200  125  207.84609690826531
1648    -107.71321318075191  66.592342374803707  207.84609690826531
1649    -150.21592431151095  42.284988871446544  183.0472804313074
1650    -177.12211365016253  63.779359166155722  207.84609690826531
1651    -164.2613464867664  -38.623799274139003  115.04744403671268
1652    -200  5.6944541553915897  133.0683803723405
1653    -153.70703519743122  43.24363258703243  105.66591094279143
1654    -200  6.0059958601814785  93.735194034081104
1655    -200  -19.119268020751647  70.786008639309117
1656    -125.77725082508353  -12.405182282484962  135.77954072341146
1657    -124.15798604103776  8.15027831990297  207.84609690826531
1658    -133.54651685003284  -7.1600582029139801  182.41901258492686
1659    -122.23804373126241  -44.350484958760298  166.77794105387798
1660    -200  25  207.84609690826531
1661    -200  0.93734849979069579  194.43651665216146
1662    -200  24.336436283806403  185.03858239099034
1663    -181.35335016735718  18.931968407522014  207.84609690826531
1664    -200  -11.562651500209309  181.39180644158409
1665    -200  -10.470942715589874  154.5385600339645
1666    -161.30952380952382  -11.90476190476191  207.84609690826531
1667    -183.24877380536509  -21.779327660042334  191.13123735269613
1668    -177.4105380755642  40.077155201274643  160.09857606532933
1669    -200  -181.93350264875002  29.754930953697691
1670    -148.88279434860806  -88.222721550821532  152.53942804275187
1671    -200  -111.44633756568385  129.42378179719219
1672    -200  -94.040717855180759  111.99417619617174
1673    -200  -132.37240639783812  77.817081674195094
1674    -147.9531322592438  -152.70383799011822  97.79189912697845
1675    -200  -138.34833077596141  117.38247153764124
1676    -200  -106.11870056152759  85.109598652006596
1677    -161.70852787790025  -179.82958408205417  54.28868111214269
1678    -180.36834216641151  -200  129.23015952952701
1679    -200  -184.27356555357969  88.785607263602031
1680    -200  -200  90.932667397366075
1681    -166.15678233083415  -180.79641581284775  85.838644706483578
1682    -182.09606893458923  -162.18003193628655  59.809222485452686
1683    -200  -200  64.951905283832915
1684    -179.70216264983256  -200  53.060156245569942
1685    -200  -181.03448597767121  148.66835878476971
1686    -200  -200  142.89419162443241
1687    -73.69727330591185  -177.98389400470651  114.55467691577172
1688    -49.003269527583548  -200  152.85627341521447
1689    -107.60161934458189  -55.983147670066877  63.900024351015361
1690    -129.35133940109822  -100.47018272652191  113.6764724864978
1691    -89.448701352827385  -85.433600373519795  101.5060481150287
1692    -115.10507363360061  -27.997771477229833  97.295463516977463
1693    -107.26626435168588  -73.851580955727457  140.05830388788672
1694    -57.005470308220751  -62.489866501407612  138.6181267855913
1695    -127.65073194614669  -169.98492045597294  69.107200756109847
1696    -200  -69.961088062331072  58.4661872747008
1697    -161.95277256019588  -90.83628401642018  94.170495882664596
1698    -104.03515372777328  -200  -25.055071503779054
1699    -121.62207974127611  -200  -37.589734134864756
1700    -83.978433529045716  -164.21695380319258  8.716160307824488
1701    -69.405332213888641  -200  -30.264903185646851
1702    -82.541324750879014  -168.16336477013877  -50.306839387185555
1703    -200  -180.97852517975875  5.5500171134529541
1704    -200  -200  -12.990381056766582
1705    -200  -183.67896525136291  -22.235673603564209
1706    -182.92741678676848  -200  -23.391867713592401
1707    -200  -144.55763794092897  -56.044564676533113
1708    -161.19718309496784  -65.699767203342248  -38.654517754571287
1709    -200  -106.65101813823588  -29.208042449443546
1710    -163.30752126835887  -171.92967529462121  1.945577202553622
1711    -168.67201709388638  -122.32320588579609  -6.1301299246153995
1712    -200  -154.09406962214911  -22.665860171928117
1713    -140.35689203075754  -168.39916554338762  -33.757021108070163
1714    -200  -200  -38.971143170299747
1715    -200  -183.99981917109156  -55.289393104551607
1716    -174.25417097231079  -172.86974402209387  -43.444859639482779
1717    78.328867345040564  -119.78470454319819  79.348135761800847
1718    92.262604001097316  -200  111.64430885385815
1719    200  -187.77163296159813  157.36730911311588
1720    185.7651985869573  -200  131.22388523205819
1721    200  -184.61375828464634  141.14436738241821
1722    187.50083864569115  -200  175.76658702415176
1723    181.25  -200  196.39851088138482
1724    181.25  -188.52303431356822  207.84609690826531
1725    158.86450960365056  -180.86828936271169  190.34482802964303
1726    200  -154.16794197900495  195.9523768405723
1727    200  -137.80797876962362  170.24859235375007
1728    164.85185190711545  -132.22588968896795  186.90575811748261
1729    186.7026055705301  -125.2721863282088  207.84609690826531
1730    185.34179895715869  -135.82465527890542  188.82392219422195
1731    185.63860548215888  -159.47592119861008  184.04848918682282
1732    200  -161.72105999056038  162.34141595072825
1733    157.92234791311611  -161.50265378268855  152.10292036214216
1734    200  -142.05944174803085  122.54892444804311
1735    200  -161.08995414471849  143.06985143215024
1736    167.95774917264353  -151.99980355293093  168.25892428106528
1737    135.87057346693501  -151.17552601880621  207.84609690826531
1738    185.5933032783733  -176.54628723204468  171.06089136257549
1739    166.48471448366641  -200  149.9813564134071
1740    178.77128007677476  -181.78423419670446  189.64416200754508
1741    139.15597242728794  -200  161.12331818438807
1742    123.41770247425455  -177.57716059366237  185.47370906989738
1743    139.3948245985697  -200  191.09529531954405
1744    200  -87.5  183.87927720691164
1745    129.74592404512424  -133.32429843910938  97.904068623176798
1746    133.22569274651795  -125.77914305454384  57.692679182028847
1747    116.93564945921152  -73.793550918939587  66.815214734782018
1748    164.8444978401933  -78.975512315519182  89.087945988795497
1749    200  -83.72344123455828  115.33426865534369
1750    143.27124350126113  -104.50414724170729  114.72968188899395
1751    200  -119.09861307002731  86.417660712602355
1752    175.48979323527428  -91.074719905784576  147.64304367440818
1753    200  -128.28892415112622  154.12942396949194
1754    132.85831806684632  -93.259862507368794  156.11681462675617
1755    155.15498652291103  -110.56369211502613  207.84609690826531
1756    168.89717171164438  -114.81318300546046  161.03506254490765
1757    141.19173241837606  -82.335656121521822  207.84609690826531
1758    97.194655183124439  -65.444715467916978  207.84609690826531
1759    127.37086360301713  -51.379649944933107  176.95806772492909
1760    99.703044402597214  -89.222420564275453  185.26023425240345
1761    60.757934850978117  -72.919733203191342  158.70024913609967
1762    89.327806343104854  -18.823146687807295  207.84609690826531
1763    78.904151579450271  17.568742877757813  207.84609690826531
1764    70.722068155318965  -29.480569738071885  172.66815891587959
1765    200  37.791146617264886  141.53395259525792
1766    128.92627106795706  7.1620112943152741  183.67885395731489
1767    149.00303273849011  36.030211357084866  207.84609690826531
1768    126.40364831034599  48.020697641463528  207.84609690826531
1769    200  -47.072979752479569  152.49265055119355
1770    200  -69.40390787672672  189.68430572097114
1771    200  -62.5  207.84609690826531
1772    158.57057113755161  -72.274223178841211  175.72465050346764
1773    177.38804777720273  -39.390463457124802  176.29768858427661
1774    185.20864001625023  -52.482935134428061  207.84609690826531
1775    200  -54.943133555487897  193.68091687598834
1776    184.60002055943545  -200  -92.091937914877022
1777    200  -185.21468958894354  -90.932667397366075
1778    159.86004714215679  -96.070323149410342  -22.642488001759933
1779    163.90956836370202  -129.77255574478286  -50.291376800877423
1780    149.77696206381188  -165.79365945930439  -35.921973243581945
1781    200  -180.48874176241287  -12.621145560497292
1782    183.9743467115776  -200  -12.990381056766582
1783    126.08768322037183  -200  125.27008762854643
1784    160.44935717173732  -200  117.82145969118368
1785    200  -185.60840692283389  98.231515168160769
1786    185.65126806546809  -200  90.932667397366075
1787    173.33952443212817  -168.3023980117791  115.49984713545547
1788    170.60933225259274  -148.87489669558227  49.998356056224019
1789    97.390004924498129  -175.2824941662455  72.124778116330134
1790    144.63547821756697  -182.00683439391418  114.10167402588975
1791    129.99364210722405  -200  95.038728264041296
1792    134.89812113345124  -177.25691303733151  72.770637357458156
1793    165.36607512426642  -200  91.427601095145278
1794    159.79788219103463  -180.83557024640805  63.399528692853139
1795    200  -161.86310400589255  66.86466750338316
1796    200  -163.44866867727396  86.072227072875492
1797    183.40333283652731  -200  61.31658678164856
1798    200  -188.10240143940771  71.447095812216205
1799    186.4770085092895  -200  77.425001608206443
1800    175.11985799017808  -200  17.42830267850664
1801    200  -200  25.980762113533164
1802    200  -47.510021873192301  -8.5105803950746903
1803    200  -121.22545201290784  34.297005986196929
1804    200  -141.48744759943094  -5.424113108149613
1805    137.04182505884924  -134.44414988404688  2.4729536105830832
1806    83.893907045524415  -200  20.239966943100377
1807    94.395507754019704  -149.54536755155505  18.827713746935206
1808    47.773087322829028  -169.78964427310012  58.948423139610966
1809    63.214936790995807  -200  16.017962688183594
1810    90.237181479744791  -113.46666250413745  -60.211225578778851
1811    106.81852738602758  -102.90310009293461  26.429153969313766
1812    -2.9819780745455802  -176.89150445059553  -14.283373661144928
1813    26.604018334983511  -200  -12.73439204334197
1814    62.245313844438101  -165.86775356941109  -34.086609818019028
1815    19.742998804396443  -200  -51.486985752221216
1816    15.631621206410353  -132.44574143442051  -19.399796015347746
1817    94.832592967066034  -200  -38.153276685691019
1818    123.07419933182079  -200  -52.47730185920102
1819    112.01709189486203  -178.13928054641909  -5.8270400586455722
1820    123.05093288987405  -200  52.43970577544394
1821    132.40859442351962  -200  24.955081470835513
1822    200  -42.886971058443464  21.628884822510535
1823    200  -77.57864825096496  41.41464686854755
1824    172.44081008233465  -98.64562010936902  36.222272098067151
1825    176.26646747828778  -57.490389340243262  64.433417167077152
1826    128.57042243789033  -21.299806489781357  85.390029238947434
1827    172.64010188760528  -43.598900754553291  111.03469150479469
1828    200  5.7646389093186627  118.2665079435494
1829    169.76174739386329  -14.731465606405131  136.05768453602525
1830    133.45056836709085  -28.741154737866992  143.79472679472832
1831    127.22089166756709  -49.316696785961881  108.42652924624444
1832    43.107052957319091  55.386248388538419  105.0523995419816
1833    91.235788024645942  52.147369086649547  59.299938267461435
1834    87.464514885979156  0.19711524126084967  72.508345122976976
1835    67.606683755554926  24.627483889038288  147.60534047894356
1836    91.123466235179464  53.843313947601281  118.60644181585475
1837    200  -12.699316908249294  57.869031530859978
1838    170.25163405523759  -5.7708432955592386  92.92587326957306
1839    140.70917893916567  -33.411385992546187  27.387334004343774
1840    101.74103707002337  -8.9639215286541862  -43.648815594326038
1841    40.480327854483122  -59.482689374014235  -83.368178023860835
1842    29.113663023871503  -15.673787726323063  -24.255764852499816
1843    -36.039357627374706  48.120852389546855  -58.438217002213733
1844    54.444066915280196  14.242173710420914  -88.232930376593757
1845    99.132082714071515  -70.624637008485266  -168.79028936194632
1846    170.68430107941572  -59.928005360351946  -129.94303697273722
1847    133.59549778870118  -85.899235618912712  -182.26329782109758
1848    175.96076227885303  -79.353702355628172  -207.84609690826531
1849    200  -77.527560893396767  -152.80816441227097
1850    200  -61.118138749056897  -167.6578775195986
1851    40.222859473771074  174.09829307171762  171.32112683837843
1852    37.5  200  207.84609690826531
1853    56.011649897610056  200  195.03413819576031
1854    56.011936717630618  187.15617817135504  207.84609690826531
1855    29.904598056104511  186.9047619047619  207.84609690826531
1856    29.99983000893797  200  194.80138669768792
1857    87.5  186.96825207527002  207.84609690826531
1858    87.5  200  194.80300498385742
1859    92.680370368767697  200  150.71557912874962
1860    123.65446757325388  200  166.50316324265117
1861    108.31758105035004  184.33356561679781  192.1901103770295
1862    100.15288930778226  185.24384736567436  172.54914300217646
1863    103.42880255665926  146.04231587555373  207.84609690826531
1864    117.01513508971072  141.313616198809  177.90099479073174
1865    200  160.27528136414597  192.7071981819214
1866    187.41799872681065  162.5  207.84609690826531
1867    179.85982745420196  179.87013171034303  187.73281134407819
1868    143.75  189.62715045088635  207.84609690826531
1869    152.36916535293639  184.83939442155079  192.67704252351999
1870    137.40390415274405  168.49045666544464  207.84609690826531
1871    126.93432640362667  161.13345608498375  191.21507433741652
1872    148.7645923907231  185.17072331466633  172.07470611075169
1873    200  128.08485104810188  191.22126420191969
1874    200  135.73782981310683  173.27028756799825
1875    177.56705755161187  154.6850504116089  178.76526758036798
1876    200  112.5  207.84609690826531
1877    176.09890774742718  53.028127215546952  161.94123965941611
1878    184.31650852460723  35.370980673748036  207.84609690826531
1879    200  30.782968109973019  189.781057957267
1880    184.33838097919673  65.653677867837089  207.84609690826531
1881    200  70.441552051678727  190.39619885340039
1882    187.87349743077129  104.17416181640087  207.84609690826531
1883    165.97690665913464  91.996120901146696  207.84609690826531
1884    139.2732221515185  93.309818875423957  164.96396593207726
1885    181.51298374639217  78.361925447439916  161.65931086055443
1886    179.24234078239709  82.520835221715416  188.35231189889396
1887    200  104.68837176575474  168.3963008813289
1888    160.04287499470479  9.8767914977647582  188.67339690342351
1889    200  -2.8526818686140047  194.47124441132388
1890    184.31650852460723  15.478554031613244  207.84609690826531
1891    200  -9.2766288444062184  167.70461061545038
1892    150.02896072378843  -19.548705546014251  207.84609690826531
1893    180.35659681833513  7.8021963463455553  170.03786660078666
1894    172.00298614052909  -12.53543673472003  194.59625761757201
1895    200  139.79060590592155  1.5451527749592113
1896    166.84627248154175  119.52084046085685  -27.750509899109733
1897    163.93785609753334  171.13310381577401  23.438185999899229
1898    200  169.67239766087101  -48.687406524658336
1899    120.4167065648666  166.75037945803385  -5.0277423486843311
1900    172.60951408195851  200  -16.178505286305118
1901    200  200  38.971143170299747
1902    172.25086694035031  200  19.191170205908541
1903    186.92359642134068  200  47.743624528154058
1904    200  154.82251195625435  48.057854095466382
1905    200  184.27401988966432  74.969283342336823
1906    175.45877088237472  174.34948854254637  98.999055388422846
1907    200  184.90873423774661  124.6719240828686
1908    118.94577847575394  156.24699528291873  152.88593454099714
1909    146.79714330503077  200  128.55331624671987
1910    137.4276316794614  151.99066052280173  112.64381326008562
1911    115.88669694255471  200  112.40810754850331
1912    139.42396122254149  160.31852392305532  146.46521560383849
1913    175.5271653411568  174.90748578541496  132.57521825951284
1914    186.54811610449624  151.17901273881242  158.04374804343249
1915    -200  96.647271007266028  142.42797260694226
1916    -127.81451609187539  114.35812672483291  126.78896015155405
1917    -200  70.273464249155225  126.98981986674704
1918    -127.04544476801547  67.510138291528634  140.81630182727142
1919    -200  115.45775315336471  85.599312101797153
1920    -171.79200570519845  117.59950805845959  111.70977070954706
1921    -154.54770841522395  35.365779324582356  46.201837502020936
1922    -200  81.803010345061821  71.47903180037278
1923    -75  200  207.84609690826531
1924    -32.989528961173662  165.49467985382296  207.84609690826531
1925    -14.06890995048124  200  141.14016793139828
1926    -8.4161518570329896  200  101.53738935146896
1927    12.5  200  207.84609690826531
1928    -19.721818659981011  180.60023713594279  207.84609690826531
1929    -12.5  200  195.30628333148832
1930    11.904761904761898  161.3095238095238  207.84609690826531
1931    16.974449953387904  133.36481613995315  184.80500011765261
1932    5.8863799155597061  180.72390584809844  189.13847312104201
1933    5.9999124785541449  200  156.33007368675007
1934    165.72260731541229  28.71748766046916  24.240381226403638
1935    200  70.391102686156216  57.601319300119442
1936    141.2496363100683  -9.9146686224302023  -17.775049107455164
1937    153.6238510501785  141.58674509425285  42.178437216756976
1938    200  120.41196425563453  62.060739389978394
1939    161.5788086022522  200  61.31658678164856
1940    130.78436966381304  175.67600980442353  63.487435422641717
1941    200  136.54981885566426  95.094749718479363
1942    200  158.76808947695926  78.419440155913946
1943    176.11854890551263  146.35241195072481  69.409041114986223
1944    178.57422579760438  119.91030185935597  82.204207634766675
1945    152.75848446993476  200  80.605641029165099
1946    -82.881699014424868  91.423856541130732  207.84609690826531
1947    -34.960788160581714  110.79410411616277  173.06465633980332
1948    -48.21991235035965  80.026289643857993  128.31973657827984
1949    -81.702283267366894  110.96354873591029  130.09156349305596
1950    -52.486364123727988  68.341178722568145  170.52515934892207
1951    -71.923770386149585  33.684871268062551  207.84609690826531
1952    -108.19162621996063  40.181857879583248  179.57868161762431
1953    -13.637735547254827  70.374957604655592  184.88198757706687
1954    5.6491186461686986  96.287662466792369  207.84609690826531
1955    -0.26326887557234091  121.3001859833491  141.61233921923252
1956    -5.416362277082051  25.439659400760583  207.84609690826531
1957    -43.662293578461572  37.215601095849451  207.84609690826531
1958    -39.633215379398564  37.451248030789984  147.56808027697755
1959    31.373533748846384  54.792393159046007  164.94015040503871
1960    10.117248203579503  166.10549914843557  -53.354339648296076
1961    21.279565850359308  52.908591752033658  -72.848988517082034
1962    35.51039793987816  97.166931080378731  -109.83859678570636
1963    36.945785730504518  200  35.21133425758282
1964    23.101879428891841  145.45952103262277  71.925689394962859
1965    14.384925692227139  166.10549914843551  -8.6637826954019559
1966    74.053237704132385  111.14152925182881  37.8204054568956
1967    87.208910390227302  95.169702192019798  -36.07652746133936
1968    47.867461080093868  121.63491828585698  -8.9886338548956211
1969    -11.850728624383038  79.16739787802203  -8.7194342876840381
1970    -103.18523964217471  200  11.210271285764485
1971    -70.636087341109061  200  34.503907369659423
1972    -115.11693271311715  162.44956977358407  116.00476001062418
1973    -119.45089799384499  165.07319437533519  49.982249833322726
1974    -116.43261252827554  200  81.428715861648342
1975    -38.756149429682068  118.81416265916189  91.834540444831475
1976    -45.122966121237759  200  90.643306500657417
1977    -69.45510882102009  200  69.629978765491302
1978    -26.782535569332964  200  -20.075281119531198
1979    -34.140831229670738  200  19.221321579910082
1980    -71.385426657067228  129.53931532035753  -10.291014162639387
1981    101.18858051576589  177.39531604985658  85.531580952177578
1982    73.535136018116319  200  112.50329267176197
1983    89.056217905227612  89.882780978006593  128.99223457097705
1984    33.478386152476368  124.52324872952659  116.37772615246209
1985    55.027269747554818  170.83177624042659  97.757649586828691
1986    77.540692956216972  171.92361826417539  141.13278079768105
1987    34.71900736316897  200  135.30150120373412
1988    138.36808792896485  130.11597475289514  207.84609690826531
1989    151.60269892750134  104.33504815119559  186.42118669976404
1990    168.99072754408766  126.32625359382122  207.84609690826531
1991    75.515348200577137  200  57.849290712823496
1992    80.945346741062181  159.156447215463  17.976238555493055
1993    143.17168179927654  122.96661271626351  63.066608110623534
1994    158.43102132466606  104.45185278344819  34.475547744817533
1995    88.729873533358088  96.97558972179317  74.643622804654129
1996    103.61430258969894  146.53214025485326  76.906043441340003
1997    110.70745374963927  127.28603959740664  102.08949476583615
1998    159.25018865568958  92.541661430225915  121.73301307669107
1999    144.3722859025757  69.735474409464189  120.44282097252895
2000    151.11863416235036  112.67446293593989  111.5077305407362
2001    116.80176635239192  79.759609133359092  111.5262855071517
2002    147.85580050849018  83.537847066395869  86.256150238845251
2003    136.85410591321724  120.02540630628236  92.589738460684345
2004    156.08168504756355  154.11166251904902  90.239109045512919
2005    200  185.6614436159285  167.93987329797216
2006    200  200  168.87495373796557
2007    168.37941092555664  179.11537886270952  159.85218362476235
2008    147.03373298656624  131.01910309713705  187.6539686810205
2009    151.75129370980704  126.80385488490039  163.46571527367382
2010    147.70219872149991  160.75129846428669  190.58041212372825
2011    155.57700331870731  145.46305912817655  156.79730693378497
2012    155.54330007472566  163.9723655956787  165.81168164200065
2013    77.284590861784665  131.31292066927773  144.94459290038213
2014    68.269088922725615  155.40610098669674  207.84609690826531
2015    68.292065114289116  200  163.34375835618138
2016    94.52126694858282  157.19833473514115  185.04450012233463
2017    115.83831105253503  119.42305751838391  207.84609690826531
2018    182.66632409901197  98.448050977108821  135.47186551971035
2019    107.74880136585217  30.566143786693445  99.034733000264026
2020    118.70018267657544  17.526413007738647  153.88569682016174
2021    94.069172873243247  -5.8955125715457335  127.11607481598422
2022    200  94.49230136205955  79.38552921956564
2023    164.53586565702375  99.795067705749872  66.878621793159667
2024    200  56.814560299722245  129.89138726969745
2025    200  87.574787489843885  101.26803561739091
2026    200  16.042939016690283  53.079325432974287
2027    200  43.515487928737649  80.605830402615524
2028    172.87431254067172  65.597437371299847  80.322753667940361
2029    138.17333167255921  29.635707923265294  101.92948576857773
2030    181.81882938105755  132.89706128806964  122.77631686529497
2031    200  104.50249715171323  106.96397463656221
2032    200  121.22662079052935  153.0560752688877
2033    186.54811610449624  135.14615242868919  148.34939040170715
2034    180.3121012936148  120.37320456027888  167.90170768001713
2035    125.38049678809141  128.29554801321254  134.58309934529754
2036    161.93950967926173  104.47010581640595  146.36769886465939
2037    128.79709279886151  94.172608909983452  133.16030698669553
2038    95.33693748008082  101.69012324999566  207.84609690826531
2039    107.787571449154  84.08363575549599  159.77478183005033
2040    104.97756736322327  84.313047940052229  207.84609690826531
2041    124.16456242266194  85.364426824849957  207.84609690826531
2042    128.34348386134826  105.15549618608159  192.23900181833767
2043    149.15646224733675  79.212946706115872  207.84609690826531
2044    76.702822607141812  54.574417172433769  207.84609690826531
2045    85.427045690826048  88.489707234341751  182.50097390821182
2046    114.44709006474223  45.954967085175269  179.68586444765924
2047    115.89692449818216  42.665590382603575  127.49481202700987
2048    120.59244620340198  61.710413396320469  153.96207397016283
2049    53.830102767080518  74.991642792880384  207.84609690826531
2050    42.261904761904759  123.21428571428572  207.84609690826531
2051    60.037434379393282  107.00818144383518  157.82578103411237
2052    50.971816483190878  148.69083847688609  148.78995452920782
2053    26.803029657494243  -21.559408992330567  207.84609690826531
2054    97.152633197797655  -58.373962914043432  104.73665982679923
2055    90.878375837432543  -69.426292422445272  140.54467981933891
2056    48.837034601792681  -16.504894088506063  108.15686575869438
2057    79.447560069604293  4.1313770685130677  6.4901565482793888
2058    22.870360365230425  37.654047734923701  -23.988390264990613
